"specimen","region","Ca43","Li7_ppm","B11_ppm","Mg24_ppm","Si29_ppm","Mn55_ppm","Fe56_ppm","Co59_ppm","Ni60_ppm","Cu63_ppm","Cu65_ppm","Zn66_ppm","Rb85_ppm","Sr86_ppm","Sr87_ppm","Sr88_ppm","Cd111_ppm","Ba138_ppm","Ce140_ppm","Pb206_ppm","Pb207_ppm","Pb208_ppm","Th232_ppm","PbTotal_ppm","Sr87_86"
"oto01","core",1377412.7055381,0.94668571835703,3.9412301850692,506.526484005097,-1993.99884701064,1.06698333887506,-79.8332062831458,0.290152614831743,1.45577764707408,0.448858527225272,0.708844613712351,6.73503510374666,0.112259623168766,1789.22846705834,694.958785013748,2031.08275004671,0.169392734768285,10.171894602213,0.016109593404079,0.467221125748798,0.346439124788432,0.390837541171958,-0.0019482477432234,0.399384813756149,0.390425705380134
"oto01","middle",1311866.83241304,1.98957750264909,4.18636529765726,295.391829674926,-5733.9949582471,2.2242674086889,-94.1266358372445,0.304487166513817,1.50594890095553,0.466852735948239,0.674830023367497,8.1013063785466,0.112320565335201,1561.05893225672,625.77052606829,1831.67758272117,0.105681704399642,6.37687935770407,0.00145741154229769,0.492534735476093,0.447448121859661,0.45241951784669,-0.00170922417514088,0.460656901540231,0.401363339897676
"oto01","edge",1274724.3221744,2.1071717166759,4.67654089957716,358.755025920283,-20167.495107854,2.61447457205724,1.17281604272624,0.611409430810009,7.70453877188967,2.74016825031055,2.80534083222967,49.8521039944863,0.13049890339667,1618.24357068417,632.724186363912,1860.62534985624,0.339921343693456,10.6278153159507,0.186123537632369,0.702464686710089,0.745279502252239,0.687880777591997,-0.000642634047909017,0.703328111465841,0.391973462214563
"oto02","core",1507096.66870643,0.38741963304467,3.09966497618212,203.047457194706,-1022.63636218651,1.35052796145957,-1.45391144687396,0.309423695740627,1.70310423290086,0.606859513471671,0.832980292957232,10.9534984672559,0.0367163460744838,1662.93378973432,640.785282753786,1862.99729399968,0.0983509384865588,5.59088223800039,0.00490639835744913,0.462504974016507,0.450871024841047,0.449469373203046,0.000362742705171565,0.452420477278346,0.388537857898622
"oto02","middle",1340751.48701241,0.446480453675434,2.68921899320684,152.729850047676,-1643.31125227723,2.21443856077014,-27.0258279221432,0.295415071817277,1.56011083295556,0.512163067581729,0.683458240142493,10.4034286912365,0.0729493363827644,1554.3995263863,617.109461229289,1791.454726051,0.0728294314322752,4.80546918769301,0.00542241105614637,0.528490926778819,0.469219394721236,0.478228528646184,0.000408789534309859,0.488043206476542,0.397677292594359
"oto02","edge",1296535.98568015,0.538524389323493,3.92668378350288,176.856854271834,-4929.6726286228,8.00392564227566,1.08259690002075,0.42001271219858,84.1244097066712,3.80718797411703,5.30646497576411,22.2193815347978,0.0600290411047933,1210.81195010241,476.787378537176,1412.43417297179,0.194727445293285,5.05910284737008,0.0199690335634928,0.658314274092148,0.670511216399513,0.790946986934671,0.00422116384423878,0.730394491640221,0.393580618820564
"oto03","core",1419641.65703995,1.06109353270281,3.62504070236813,723.676623258746,1429.05633040534,1.21688317583453,20.8297593507067,0.277230614301522,1.78332738792489,1.00699426086787,1.1505358557909,21.3559029936084,0.0486810481130007,1529.38877410632,598.051030940301,1782.90874948823,0.150806002802457,3.37012830569367,0.00386790649019383,0.561892781133457,0.510477602904396,0.498864077858423,0.000260498321143292,0.516380061582464,0.39152087956357
"oto03","middle",1335793.08800734,1.73967179860463,2.81735331075037,531.87828862666,244.169733738103,2.66137245164595,4.56602959880384,0.295438650756345,1.49523049276301,0.687766951891333,0.89785273592684,10.0662716603856,0.0407231037168187,1470.74545989908,591.683590149879,1698.42094923404,0.0179722770043404,2.92551034898957,0.00309777095890417,0.442896051302352,0.384249791678626,0.427103381439813,0,0.420947198019009,0.402593573129134
"oto03","edge",1335871.46933764,3.25289946108387,3.0907873965009,388.795285523499,-982.918852096055,13.0142122447906,18.5173276940175,0.287510955423965,3.17909334859055,3.13804635306603,3.53654199357492,42.1966222314591,0.0781709511807546,1544.80211133006,609.195319947692,1778.32613197675,0.296894165003994,3.31923485954124,0.0112454683948941,0.772876693244875,0.720769402608783,0.794549645382688,0,0.771783149517097,0.394212615785911
"oto04","core",1870532.3634671,0.506405254245148,2.14725779539268,149.377341139775,1321.64191445262,1.63827288175949,10.2148266671073,0.176160450953295,1.34822838756753,0.181422450480579,0.265289039240723,10.3719211515206,0.0517757586449864,1358.17471344673,534.615756213243,1572.28600838212,0.185361091106283,16.9482672602931,0.00151567644360399,0.545330182620335,0.566966741649494,0.553847327966828,0.00112388676303125,0.55355637834286,0.394976918802243
"oto04","middle",1850179.25836822,0.511302189513668,1.4480189129779,124.041416324342,1690.85372865111,5.49580353193252,9.51750281250597,0.206274244194636,1.28021967865584,0.215362010993503,0.286417912546634,12.5562159547423,0.0391443069972544,1263.08417156074,514.018022466902,1477.79668882227,0.0213329032580684,9.24382071052278,0.00190350506699991,0.546562116862172,0.513112583846612,0.525823435240527,0,0.527080930833384,0.408596391436754
"oto04","edge",1685390.06318722,0.51515629404317,1.56801596448919,176.566473407711,1255.44739564335,12.0923291566622,9.92133499567468,0.178128708575781,1.27892434165224,0.930259118707126,1.15100567831752,21.0179894903359,0.0372949433196424,1611.84621735153,614.156017817752,1768.12413959766,0.232658112044413,2.06344620805057,0.0123479156439742,0.672254231770938,0.684241543593486,0.548220117121938,0,0.608077696114955,0.381513576480478
"oto06","core",1638083.56943599,0.387411370438639,1.9586434567889,230.419028884736,1421.92666702748,2.10420938832221,13.5572974969962,0.236840232122382,18.609363223139,0.703851910068395,0.83871930808939,24.6322712604092,0.0206402828205291,1759.41554229547,705.534168186088,1988.03442896656,0.243265689401192,11.4269079580207,0.0044459333921735,1.36381565038506,1.25062508919577,1.27251572351289,0.000383105816291142,1.28848591397045,0.400849083454718
"oto06","middle",1441010.57602494,0.446112398061477,1.46608585042919,123.607837703496,1411.17067117742,6.26453524423717,14.8831991884152,0.24212944383282,1.84302052437953,0.522426628020838,0.665137087383253,22.1413346918113,0.0345658258442614,1280.96032830247,509.134413124299,1442.63208345227,0.210905281185995,9.61424870718885,0.00559536536979858,1.23220277173765,1.16838429738317,1.20384189203925,0,1.20132432609595,0.397814914657979
"oto06","edge",1411854.10540984,0.718840674505786,1.64378796820293,88.7543823466272,1812.2327104533,16.7903508767842,47.1172052434019,0.224545377898855,1.93333172789743,1.01806315834955,1.09696843621152,22.6245639585326,0.0373555489949569,1203.0359879725,479.40947918485,1353.06942662156,0.155019945899887,9.44459161317029,0.00350239117618352,0.834518588908601,0.780090239755614,0.791174944806747,0,0.798342420374984,0.39926516201629
"oto07","core",1454798.61931987,1.44414016947029,2.03065410142818,169.678694625149,1497.57723184555,1.27058497501813,16.9332107163303,0.23349796085057,2.10910700385696,1.141681995488,1.2377719247562,31.8419414241422,0.179863420222162,1362.11019512581,542.126585271231,1596.65855871446,0.425038218837624,2.90744993352717,0.023324900948007,1.78262373787255,1.64486582146764,1.65698445199495,0,1.68307276962558,0.400238237248754
"oto07","middle",1411386.49627026,1.06011377359286,1.85348794840652,96.8910983197135,1027.22397986972,3.4956501538397,9.59112093813102,0.229990525667948,1.60927683956111,0.500644275026085,0.62041678895493,22.6874766171857,0.0460869514344106,1391.98453513721,556.402385653368,1603.61803620488,0.345833594492874,3.94802619341523,0.0062614253768533,1.57417803667868,1.44395493284906,1.47578195635385,0.000225423855992713,1.49100855158883,0.400752015673511
"oto07","edge",1297911.87527858,0.46244234351856,1.81360142911797,99.9271433618723,379.184710115179,10.221804465979,17.0683547807197,0.270074553727531,2.71953650156016,2.04571839367731,2.16153691096919,42.8922581843166,0.0370910028407934,1367.63855113532,531.69046384097,1511.50394050272,0.482681076976116,10.264094965505,0.0071958718160837,1.52823196530434,1.48174626689086,1.38805225454343,0,1.44158589462117,0.38914529990505
"oto08","core",1378101.83712323,0.571459159807714,2.21370546319005,226.223723736994,890.003296570284,3.95120211787034,9.00298248150163,0.216031871155136,1.51776730384594,0.498345948234128,0.687031073434673,18.0673618286771,0.0622708582432814,1435.8762779027,566.097266260353,1628.64920842074,0.0806888297687321,40.964799517904,0.00134101938046857,1.03943861095395,0.944939218874834,0.99692928190498,0,0.994509274124031,0.394618827534533
"oto08","middle",1441733.12097247,0.373053423106356,2.35369310346209,215.423953415835,759.185409627648,1.50033695741019,22.6342695641088,0.246161194759907,3.74422477383861,0.955014287339252,1.11480970530184,21.8235837335437,0.0456054151909307,1490.15982215672,591.321872560138,1672.7211716155,0.140119376329779,22.1487224064293,0.00612124464827804,1.08017993958779,0.899907796037732,0.936837183934327,8.54187578622831e-05,0.962790113297501,0.397761697561609
"oto08","edge",1359951.38277268,0.709287291691366,2.69500469715893,161.969181597901,745.818304794195,2.29527914942654,60.5338063145371,0.31575297809275,6.98753718256928,4.62731989847001,5.16198322625401,70.8083687315411,0.0615255699108705,1405.90864207975,524.472224098198,1499.54961166514,0.304263700242484,21.0840745428539,0.0129747127018292,1.50875143391828,1.31865881921871,1.38075528489325,0,1.39670203997274,0.376255045422468
"oto09","core",1576360.30687252,0.47325049976826,2.14240238039604,89.9919831576208,1923.70067564776,1.3290430776501,13.5492793334254,0.230663079971569,1.51270800778746,0.640143469395353,0.837309713407452,9.58640508603181,0.0310429241731772,1472.62444392142,589.944264799154,1653.98285146366,0.19217102082752,8.41075356623118,0.00424699007048862,0.395105448066302,0.304554914410111,0.383426728993839,0,0.368271337901653,0.401955181892945
"oto09","middle",1601913.18751069,0.472358709166808,1.36094725760935,106.937678373032,1873.67079876882,6.23354892501096,14.489104763449,0.217437535893487,1.48740480319794,0.541811604870325,0.665874964711713,12.2273274491893,0.0439710392204657,1406.57247277596,560.907798943595,1568.44736116983,0.215587760990169,8.97044318878129,0.0067663565197854,0.481852852929234,0.429347407831826,0.457510150802048,0,0.456633734205673,0.39904096289909
"oto09","edge",1394193.33785997,0.383656922187135,1.22278531889265,117.120882812763,2103.02031018343,19.0180184782995,8.51754423382894,0.195700770422386,1.32866710032074,1.32887344952126,1.50127517978478,25.8208382358025,0.026948178637101,1172.80780311789,475.217665046303,1334.59080000918,0.519279823340833,6.16850612594195,0.00226772061525122,0.625913314301924,0.60403543267707,0.577007509959667,0,0.594284006091283,0.40519762550348
"oto11","core",1617017.7620836,0.837749770710727,1.85782760353509,160.61337723214,1766.07730425786,0.857397083912299,16.3559388058012,0.23549536356889,1.29780552716939,0.381552895251701,0.586440229718656,12.5235985327828,0.0390103368357772,1469.4478985879,565.995751895848,1601.41476619101,0.0123405442189756,14.4544642806581,0.0114423900913237,0.401462102054669,0.38723406847717,0.38430216560223,0,0.388644205185496,0.388202633069381
"oto11","middle",1522618.62117297,0.717690993672646,1.62601724938669,160.757965967896,2368.19936062064,2.66056198537986,16.7378328141333,0.231423477809518,1.48889137007818,0.56814304181224,0.695344944127157,13.4225679036548,0.0483774385384625,1487.23505062893,592.13088559651,1668.04352722962,0.0691513581499719,17.3368848344205,0.00956756056900312,0.462728465672832,0.430282187910045,0.448714429234385,6.61800567520022e-05,0.44744398598551,0.398506309444553
"oto11","edge",1408122.32807423,1.82190372132129,1.89140654106452,128.950727312699,2701.28368815903,6.01411331810872,26.9356503066422,0.24958123821798,1.68569318668838,6.52654859801687,6.63828597894716,36.0835945785253,0.070279926640891,1519.91080005288,595.231258170367,1655.78847375562,0.310523351678939,49.6474365815759,0.0107938895389356,0.605804911948313,0.560265248227122,0.577295426894027,0,0.579736305508703,0.391744296033211
"oto13","core",1513276.19914006,0.473459915011163,1.70678761176654,238.651306777504,2565.01950600881,0.748166088159782,13.5367020976148,0.204902697102197,1.86429759305202,0.57519373787549,0.820835315718748,19.3553337670966,0.0284517015845264,1562.21832222411,609.667535414089,1730.4762243383,0.118268970354358,14.1561351145937,0.00444067291617287,1.35120226985455,1.2997146613396,1.32897126638706,0,1.32598569864208,0.392589485721554
"oto13","middle",1423498.04228168,0.965337281516495,1.39536654307041,175.002856747181,2866.48473237818,3.41497854483684,13.3263740359323,0.225107282862383,1.37626712511898,0.606028573360008,0.732739415371958,20.2128740412568,0.023721766643261,1438.04185445299,564.097281979722,1590.92519557535,0.257497827838867,9.55153755169824,0.00572002106680347,1.33220838328323,1.2085863546735,1.25211232569381,0,1.26039087725622,0.394871030781071
"oto13","edge",1327885.2321757,0.426539760624741,1.6289294699486,147.996249166184,2576.29901899846,5.22808433052385,30.136139137998,0.273629617363931,1.51214410523479,2.27588168194011,2.20760140925141,39.6763214833319,0.00561111280402545,1365.43691688578,559.237653035174,1522.51013041015,0.839194506281817,2.55648682990443,0.00511045422328174,1.34418113917504,1.09230373320281,1.09250539155245,0,1.15309061725094,0.409913434212935
"oto15","core",1619205.72632228,0.49749288636588,1.43292131742603,190.616938199014,1270.48358200563,1.7980666177974,14.4221270253179,0.221673253005073,2.27625797009644,1.51049306862749,1.74223165877464,21.8871871194048,0.102122586330678,1488.18821021792,595.589217026952,1691.85729498105,0.270423237044175,10.277413214372,0.00664748938995557,0.979863103571517,0.912296046557889,0.92442272712788,0,0.934051856870775,0.402463485931256
"oto15","middle",1541047.26727338,0.373093877819379,1.29889849079083,136.392498762108,1477.81841001515,6.86384399963858,16.1495997430756,0.218829528417717,1.73913000383783,1.16041875439656,1.37867445343949,18.7944109817126,0.132838335549261,1419.3523226096,561.769099792807,1583.54953182163,0.25540967698409,7.31392977025032,0.00743375502072956,0.921142779318692,0.831453191087791,0.871879003922457,7.66127479661687e-05,0.873776924393954,0.39826478384853
"oto15","edge",1386369.55406437,0.654017382848118,1.27353471426969,107.630292729479,958.304199437438,21.4211334949134,59.5763723029142,0.236528334902185,1.75632825876386,1.86961926975854,2.27807215384346,23.7539508884831,0.101750631526997,1482.23860174498,592.160549516808,1620.40484144521,0.195617752125365,5.70898169720614,0.00867600904810355,0.66672876965434,0.676063213285126,0.686395491791647,0,0.678198251056925,0.3997243944596
"oto16","core",1669414.94762736,0.498216332726857,2.15394886897061,94.1192572464932,1666.94042826865,3.14934296314724,14.7841792191404,0.235872588294309,1.4358319677901,0.646947746412021,0.788781206576749,18.8534512408251,0.0977166415896365,1393.15583507623,549.97722825232,1538.93586927387,0.220687951183506,44.5299696513736,0.00358951194498676,0.879671843882879,0.780237107166377,0.791715479191472,0.000258902708422439,0.809723561301744,0.395116402196586
"oto16","middle",1747223.5527403,0.480772169184997,1.44648803717274,88.1014713121762,1670.19365258807,9.10729490816766,12.9996210972412,0.22405660276714,1.47189676305839,1.05442709435547,1.22258146047562,19.7685204151303,0.115738075903206,1442.05891348104,576.78808353014,1623.90760538453,0.216180197825774,45.7931194754037,0.00618400610893743,0.958831973511416,0.891428473664638,0.891400431380548,8.09841739385075e-05,0.906731268509637,0.400967956092738
"oto16","edge",1617464.90924814,0.851076626469456,1.50650958226067,89.2632628621459,2248.90825557215,7.90207217095878,14.8482540600496,0.230784802169503,1.40131068480488,2.01858538821888,2.19358646680032,27.5589242883338,0.0485723221911669,1798.65109176028,747.911172191463,2028.37407963081,0.448394902510281,26.4491799370649,0.0121724887384908,1.27447223520353,1.32049500361216,1.21209097315991,0,1.24974018083781,0.415344019321699
"oto17","core",1581329.09697693,0.380650440283834,1.40849356583,79.6941322504418,2568.23032465983,1.95982181412049,13.0189869228861,0.21228987901731,1.35536074320687,0.502878727296972,0.653872774279302,17.8486958126637,0.053105471322264,1250.22160913827,499.930339889647,1420.06099256478,0.0998485374757358,44.4712960054259,0.00648406573578324,0.786266769384796,0.768709067204866,0.741407767371009,-0.000280186569970374,0.757423081643371,0.400588659383826
"oto17","middle",1628671.92193714,0.380682440516305,1.0961461802595,98.5282081539795,2371.07062725617,6.03610381079711,13.7252008920712,0.208263557643694,1.51601653725106,0.480850551194187,0.636974283357288,16.8346177765239,0.0636763698481504,1443.61915278278,571.482184793082,1612.17137046382,0.146952042822888,47.2239296719548,0.00821016875425807,0.721523876557042,0.668050909442278,0.694034920624307,-0.000217061106253201,0.69399512706739,0.396885456765178
"oto17","edge",1456613.00026992,0.642351597290298,1.0041930550246,101.052385008164,2997.43106211345,8.14735313603033,92.498233919023,0.23629040574738,1.58866922896437,1.43931077111315,1.67060428781094,32.9556175677087,0.0609281069846477,1452.28917392982,561.168695497593,1623.03125244844,0.32982213780045,31.5972869661318,0.00083502964766488,0.868376909809373,0.940308401667436,0.80892982892823,-0.000291923323159762,0.85155414029062,0.386257902125195
"oto19","core",1454311.8697433,0.846947031960552,2.06426693363127,110.610768226616,2103.22830494413,0.90875163271007,10.2536008457303,0.222364409676409,1.43464465062254,0.566519247126456,0.746925299380547,13.4554659814169,0.0178051715801004,1392.17358307387,554.162778168969,1547.13380820399,0.0655413335927208,14.2245461084882,0.00539593941323875,0.518430566990827,0.462895641351884,0.514093701002504,0.000282858658506542,0.502987721227653,0.398408064320328
"oto19","middle",1514793.95222407,0.804749058240123,1.31756187905544,105.511028262452,1883.1269829276,6.67507340786577,11.1218019361563,0.23114564135436,1.48694689193565,0.785001622901906,0.864839883472968,15.3876874388559,0.0547900036941031,1277.77217750628,508.202184164387,1428.66650895056,0.119469432837554,13.4415056917733,0.00713361256013489,0.511767854486467,0.475460701858247,0.506064833526575,0.000137586500119262,0.499881501235811,0.398309885986006
"oto19","edge",1325187.28908296,0.255845907895838,1.74906508129334,105.458721930004,1645.5436227803,15.5986457228295,31.1152810041293,0.241559561982803,1.70594376666826,1.52735055867873,1.47493822999999,45.1659477220856,0.0814648861776761,1093.59507225381,444.065770658762,1244.21585688533,0.199381890027852,8.41191948870205,0.0169545219207684,0.838848307200659,0.766138876177366,0.742044632366406,0,0.770173668543932,0.406628771021698
"oto20","core",1717861.84427704,1.12800165902377,1.77780126289739,127.390805766526,902.44060734944,1.11924952043592,13.3942606351975,0.23131181546131,1.56990729003009,0.815158410554591,1.03610482785529,13.1433998218306,0.0563810142007055,1384.94074122907,562.223309901345,1608.64988123495,0.127036046603287,10.6579242246078,0.00719063524825375,0.426269852590339,0.386242981931481,0.413553918972845,0.000178595693934615,0.409971270667463,0.406641795265114
"oto20","middle",1533168.87499205,0.903571273812453,1.15882574588107,119.199523849665,890.483632990569,6.75121211676216,15.3985917921896,0.246556467151137,1.55027294837181,0.839053717447023,0.988755664717664,13.9690742546153,0.0621407543259821,1338.1604983688,533.025220907544,1509.18573043377,0.101122280137432,13.1791199898509,0.00629113451032402,0.530686372080495,0.502646484854296,0.515374668880114,3.71997056049402e-05,0.515508242107723,0.39886735283476
"oto20","edge",1387078.55487175,0.364097411592881,1.33405073678681,123.560334588008,1571.96667673054,15.9174007397804,31.6837782136325,0.239456937679844,1.8353880515328,1.29359595076647,1.39545855456467,32.8754683282703,0.0781990654341501,1412.75795391897,572.729000733304,1574.72989612806,0.153057513063878,12.5850098242475,0.0432078479014507,0.885272015262163,0.849606211526347,0.86006860338803,0,0.862598336307667,0.405854540658634
"oto21","core",1712836.76893492,0.60189483627425,6.92110783353012,418.616262388399,1856.32671327434,0.816963682232595,9.43849412219988,0.234685315764891,1.28707578782315,0.875149491735117,1.0379540352269,11.9009490928443,0.0766338482169731,1417.68693790748,578.181201621528,1606.40531784093,0.0502599963234708,14.701465162633,0.0015758820196886,1.04465166385763,0.941440281552983,1.00599628755014,0,0.999590889759113,0.408299785569341
"oto21","middle",1653044.35489242,0.617265558034858,3.23161651081165,301.011302498896,1952.3156207605,1.60386824906779,9.62516434077095,0.211893994960103,1.19811750832062,0.287609799004837,0.394953730728029,12.6833587755028,0.0852700191976614,1422.72541726991,572.796259885507,1621.62374243551,0.049264505952248,14.4637568148972,0.00181405138292892,0.889106086423367,0.789855431997304,0.818821987542174,0,0.82844953067666,0.40273088528556
"oto21","edge",1566640.55476668,0.500407428370829,4.82667001105584,213.06570581742,2619.65559817455,2.85508340348386,15.1025326346582,0.224083826462619,1.11646119278902,6.65828793033874,7.05013148200909,22.6926803767444,0.0807635034030502,1336.89359519318,531.616713039863,1521.57217071288,0.0674128099188083,24.8319579826133,0.0134675308870947,1.0660399416975,0.90595051540353,1.04714868912898,0,1.01876443895848,0.397823080300885
"oto22","core",1956473.77697806,0.359851494748026,1.97368717843822,160.896160849075,1276.99951621875,10.4320421626645,9.44394287800921,0.187840581929757,1.13617877648479,0.327688598637461,0.446818689099741,15.234338193313,0.0829185651987202,1684.81917875781,670.051976010275,1878.99325764112,0.0636514934981519,11.7293553008674,0.000621855777354824,0.54873654512115,0.519509087121163,0.53962463777286,0,0.53653023386347,0.399151548268314
"oto22","middle",1704665.6673731,0.391316692253614,2.45003973181715,105.838517903471,1311.37806522899,2.29940013163286,10.2010366995606,0.20282735413816,1.21265477119598,0.269456328991745,0.371745253009845,15.8083241881512,0.0714822014623493,1322.24555352315,530.32128033814,1500.81080098474,0.131285637692535,13.2433527426075,0.00338827774788685,0.605900998060789,0.520075213659976,0.554883523323832,8.62614514589567e-05,0.55886907822191,0.401812373880165
"oto22","edge",1501638.532908,0.36318052015451,3.32958885155697,115.259134622843,1562.63910431266,2.88929056708325,10.143488930662,0.208851347510673,1.2301434431253,3.37710693184963,3.76436621493978,25.577326670523,0.0944762613078705,1451.63912007038,589.201676114939,1647.11766408811,0.287790593028987,16.2639196773535,0.0112405567528578,0.928174048095961,0.868641809811048,0.882991581808958,0,0.889540670414689,0.405539870026963
"oto23","core",1973615.31809758,0.317698621918471,1.15586640882876,143.359404721975,1209.23735157029,0.532028514234776,9.75525409230782,0.211699748683452,1.18570271429331,0.263184155735839,0.337848858178207,10.4512405274962,0.0390033728458046,1400.57696577766,561.355661679623,1596.6744592702,-0.0391849233655195,14.7867588551239,0.000224945508876594,1.08620574382564,1.02841242034355,1.02900112273082,0,1.04133137525332,0.401289694271952
"oto23","middle",1720260.30445069,0.337308888311818,1.56788427736277,107.664458113839,1558.81329516708,2.32024970986487,10.1124887001226,0.201646404208864,1.2180655097408,0.299017063606703,0.424988206071146,14.3809186535183,0.0347052510618366,1327.68739809554,532.860789088161,1508.50048963547,0.0481054148019301,12.4237214068288,0.000420280487671506,1.07761783611204,1.02666100664669,1.04649966749266,0,1.04807057221329,0.401628743923606
"oto23","edge",1599007.44109734,0.255260109753866,1.56143892030413,102.997206163907,1446.00954402606,4.27397683481592,13.4608898806786,0.227014833668565,1.16108630046974,4.49000485566222,4.74142483679534,21.8934049433808,0.0643806239239967,1316.37222259923,530.413189158625,1481.35297287652,0.236953016860804,20.299272906787,0.00043133679143056,0.711603389034082,0.626377639028973,0.565629565395993,0,0.614308477234783,0.403350515102463
"oto24","core",1961584.35146883,0.32175903030012,1.31222328778862,182.093313354356,1614.32747382962,1.11408131959061,10.5608179262592,0.191606322968072,1.19614101347456,0.0567827395615538,0.175025209316242,15.3828335623234,0.0109048988509255,1499.96925707578,594.667031234027,1681.2564985553,0.0427012519122903,17.2170902703006,0.000415647918504765,0.690875879629695,0.611627571601099,0.627698720900662,0,0.638722253589919,0.397140216361145
"oto24","middle",1690425.60485114,0.303094546543163,2.35244704287934,105.706511790513,1562.91291520801,2.03243873660166,9.93868651224437,0.193671180717615,1.17351716436175,0.049642568021531,0.148439292207949,19.1724207076231,0.0211228619900271,1359.89347875972,547.83236521413,1532.28509435772,0.162808063016471,17.4758837082995,0.000208474166857777,0.860936228021987,0.82353587920109,0.825095841031684,0,0.832251086212452,0.403216978325075
"oto24","edge",1609016.42117062,0.270736481773649,2.80069532271309,94.7098755455351,1026.28111506155,4.15035015978764,11.0848027476626,0.244856386212018,1.09146497266431,3.03712132141529,3.33419984831022,31.0889790605686,-0.0104839742947344,1246.46709884944,487.515078739228,1374.71725987236,0.193641768072272,27.5567159108285,0.00417258572464406,1.00259489540304,0.755353484172917,0.876226131721879,0,0.879194031091569,0.391702559659383
"oto25","core",1984058.61749403,0.17029649724971,1.58781703801054,197.539940960332,1542.76126450673,0.964870071922417,8.75543651312284,0.171924779063462,1.11276227926435,0.243143655465974,0.322536818862333,5.8831738064331,0.00991685384831143,1462.42684528372,587.609606120834,1605.51204852073,0.00405550981534371,14.4454146103109,0.00021931827353124,0.0662031038129022,0.048389629155304,0.0460010420851244,0,0.0514379353810783,0.404802208640413
"oto25","middle",2022692.66193831,0.224150473836656,1.07255636548102,185.512234782075,1618.94450723517,2.43552712348196,8.794903662047,0.193031570814484,1.16372379577122,0.149077619426359,0.259500959474807,4.45751343732446,0.0274434551597315,1390.10864235399,558.094562040431,1601.10399606626,0.0454135080687017,15.5087134902778,0.000106500632429543,0.0522954950682684,0.0539738564514613,0.0586619949787728,0,0.055924137262308,0.403265578308435
"oto25","edge",1925238.75296906,0.0183512891578629,2.77514290885224,161.027691661502,2086.65988853197,4.75766265980339,11.4576125331596,0.190738063826277,1.24315483293323,1.52995658962764,1.75900394595957,7.05872833413694,0.0457659726175893,1223.25884516805,501.149193856236,1440.96216809519,0.00520852324261311,31.6502437821924,-0.000748066955329404,0.0237776773319242,0.0308298346849128,0.0263480885457814,0,0.0266554793030522,0.412332396750497
"oto26","core",1625755.2219701,0.855848182182838,1.39539404765481,438.136047300251,2030.71888181169,0.617921859237797,12.4305847865306,0.228659845438268,1.31657853115115,3.22262399821372,3.59743193648786,2.79873341201683,0.0336993314726451,1569.83540879881,626.839587270161,1794.40026146699,0.045788485884508,4.92616532311914,0.00185595292068901,0.454567200918733,0.472034337863429,0.509665063771295,-0.000455533936126693,0.48681816236333,0.399663242034363
"oto26","middle",1726114.66099776,0.375730442534338,1.82156986002535,319.972561746168,1731.65678324897,1.77250883442889,9.15829560584056,0.201210465431339,1.14756951278635,2.26695167784434,2.67573204644436,1.84415724593805,0.0265579867402186,1439.72266500695,578.792516414877,1652.935205873,0.0115873083787554,4.4241370707061,0.00226737835332653,0.345483684354626,0.32628790717549,0.341052464418468,-0.000733166691220502,0.338296763759208,0.402558917440119
"oto26","edge",1502356.16556212,0.382260560098853,1.98180268181494,338.282083874074,1748.99989669271,4.21718040431431,10.4765390268265,0.254518765369507,1.34645038608516,6.31999229930707,6.26138676539649,2.73779667821852,0.00282902435320413,1415.9376228142,552.468117365703,1634.90734909004,-0.147142656348822,2.30338628518121,0.0051459802424068,0.449656641809536,0.431545925595253,0.47123914590582,-0.000852788616074523,0.456290567669498,0.389982997247255
"oto27","core",1975380.36824319,0.535612634763513,3.06644011044383,534.283230703778,1150.36609239816,4.10481012751474,8.03204381871038,0.225505621484506,1.18010211000458,0.170230919698015,0.316889116687977,16.2687840101727,0.033650936324121,1730.50795704112,684.077541758479,1954.08890154658,0.267174423214012,11.7714526459005,-0.000618872385581704,0.943448044338522,0.890896279258228,0.861841629377498,0,0.887029027551988,0.396041785670527
"oto27","middle",1787612.91977856,0.69482317789073,2.83659424528766,356.886666116161,1498.19307988305,2.0024166184517,8.78150375226839,0.227894970260798,1.21340366954643,0.215512092910645,0.326033505662307,20.3808320378817,0.0352141964572707,1414.05800327519,567.353780261638,1610.04652993381,0.283235287518146,11.3941866654364,0.000142667641355557,1.17584725798214,1.07724579518066,1.11235567215051,0,1.11838150701012,0.402279511003898
"oto27","edge",1670662.4199039,0.607109295138579,3.9032745392098,312.280462487601,973.887537124792,3.0407257148906,7.51550849111517,0.202691207829425,1.083657573429,0.514225360492619,0.568419399329838,22.6709159830157,0.0486300359576648,1237.72798862379,497.410877231356,1432.80238739499,0.302540706429502,2.09260486946625,0.00158283041018133,1.39196437152312,1.32512143754428,1.50186311193976,0,1.43286224754643,0.402182004609975
"oto28","core",1779135.23070897,1.38919341279665,3.42839763253769,500.205019233776,1190.4740973477,0.199082660745705,9.17368212120313,0.224389279732455,1.22507248583787,0.403883951775035,0.563256640622307,25.480354259151,0.00755980828437624,1559.88793230223,624.728622344192,1751.90075551272,0.234557620388963,6.7456493176186,0.00115931481505625,1.94126084753073,1.64050681197649,1.76183179608006,0,1.77627002278332,0.400327795994083
"oto28","middle",1806194.93672787,1.39341346214408,1.98007862861929,357.138511611574,1115.11074112637,6.86236230039195,8.94675902237888,0.272098507909346,1.21232448295625,0.221474483961735,0.349101706619223,26.5859320870466,0.0327339528287921,1504.79248545752,598.238747803175,1705.57360311692,0.25344433664999,6.19894519920907,0.0015031200091957,1.84713489899619,1.71166858516232,1.79462033830859,0,1.78612393168334,0.39927133701862
"oto28","edge",1715252.44073685,3.3191250303319,2.56083638530437,290.956748821029,1432.0621686231,3.31383481682674,8.70004416512689,0.236789880688472,1.18512571285077,0.317834731064684,0.44079279649514,33.0954833306353,0.0292443992310769,1260.96251552542,500.692614407613,1450.51999049247,0.418274016654404,2.28127084150176,0.00120432031858663,1.9986892405613,1.69646941525464,1.81049119904585,0,1.82863603835658,0.397651133314848
"oto29","core",1970906.6925004,1.38586608161087,1.32603309626247,673.927228186969,1715.49773842293,0.849004580963097,8.91919771614271,0.169852389687894,1.07569053628232,0.322025020133019,0.312792143776475,9.45852707916999,0.00445864074216815,1653.9352725307,681.102682980137,1887.96221596301,-0.0201479574228702,8.82047735127598,0.000632276744543708,0.0657741962394345,0.055378564445557,0.0526148216928408,-0.000310213972728055,0.0563780477177849,0.414973125774828
"oto29","middle",1786406.63907162,1.22533130723533,1.82247748873523,455.908279590105,2411.01052748619,1.71517912460257,9.41454973285398,0.167871722132261,1.1558304756122,0.321054426308721,0.417291067427985,11.5877384703286,0.0297407730949496,1482.52085507958,602.333767845858,1741.90587913715,-0.0452160090636508,7.7425593667853,0.000385611683661392,0.126047554905166,0.0907519313807849,0.0833088687211264,-0.000297967779065547,0.0953697476051494,0.407169209008686
"oto29","edge",1602993.50879405,2.16098818528151,4.06325636496807,295.971436485418,2164.88876958224,1.95466244371096,19.8587167930248,0.181835243466166,1.23193557670829,5.14743508033657,5.62987033688894,21.9998351925423,-0.00785486263722544,1507.36493101251,621.625913637056,1768.09206975108,-0.0115772858592977,4.47018735503856,0.00300782058294815,0.126236154964916,0.184776365261012,0.138793676587923,-0.000340199799166048,0.145632679384428,0.413484428798996
"oto30","core",1625083.91635866,0.58559028991864,1.48616257857718,364.858542849626,1967.43062607881,0.879991003452721,10.2346950388348,0.20455399178963,1.28747675223907,7.11666211242192,7.39061435477418,11.4433413888716,0.0175689257322158,1597.30106286552,627.093950822034,1805.09058939846,0.19348009349188,9.0926256082837,0.00272534974518416,1.18590733254082,1.05398779797589,1.05554924998316,0,1.08562620189072,0.394696060367998
"oto30","middle",1674216.26138433,1.23974751294381,1.60058615370751,325.511202407575,1938.75945005469,1.11114427836643,9.00295402913331,0.183255508005545,1.32761000786187,0.228164472722807,0.291072850453051,13.6496857363795,0.0272897537852681,1548.45730021373,625.90435443866,1788.79865846511,0.225540545567769,4.64513780856141,0.0010661041292459,1.15962810225248,1.03031098766073,1.10305722838972,0.000273417478512259,1.09897761125136,0.404847305932816
"oto30","edge",1558406.45199676,1.43226197193828,1.60489547623615,298.361338712271,2090.57415707206,0.919487336382524,6.62438625786307,0.197437731590108,1.34845388377156,0.198749764046207,0.393942592263703,16.4924293028591,0.0713337381232645,1592.20963326486,638.211856043928,1814.32244884486,0.192428733323971,2.58642984564765,0.00250667395259633,1.38079237325744,1.45210405042206,1.42570515478007,0,1.41798438541205,0.400796615217826
"oto31","core",1830576.05896851,0.305347120596673,1.89926469221725,125.744842166884,2070.51938734779,1.67505439247625,11.6888301773327,0.215671223049093,1.15682124030899,0.670616602334729,0.832254336588029,14.1734976757879,0.0148342103014804,1527.83888849144,611.493159438227,1741.95805781029,0.0568942982396985,48.6012421184137,0.000635067332309133,1.68548082420873,1.56801202230469,1.55281318811966,0,1.58630603779295,0.401044348437063
"oto31","middle",1850197.36004031,0.264638061266796,1.33201370077646,126.303777399579,1804.21306533151,2.3229699572926,11.7497107381937,0.219826635615722,1.23435088318058,0.18835569896691,0.291252208839165,14.2209774352533,0.0269189748397287,1514.37729192996,604.971436489695,1714.15285861765,0.0843667824586683,18.8619350629213,0.00102025822432974,1.30042913371273,1.1708297520874,1.22572417034848,0,1.22987013780893,0.400369602800328
"oto31","edge",1590531.85288679,0.156510524691699,1.98826485172726,120.980522196946,2078.02145633018,4.28600503485646,13.369631265195,0.201733217428968,1.24491090760701,0.241572419853596,0.341102305530889,21.5682845650582,0.00178959793088262,1448.14321477188,555.255034942926,1562.2111851707,0.0670179498591264,10.5488973831746,0.00113437308637872,1.4330030031406,1.33634565727436,1.46241122897544,0,1.424568067443,0.38359117102646
"oto32","core",1875858.14368493,0.618586509250016,1.48137319438075,77.4864084156322,1138.92519137849,0.654644606799084,8.49053627499663,0.218449220097078,1.14900930162375,0.681952295868157,0.827352290074471,14.3638927688141,0.0420047575325788,1278.44447924667,517.256633996031,1485.35696872271,0.111214874525298,3.80259723789257,0.130650879443527,1.55783508765871,1.42956840608856,1.57889312116957,0.000290987081666406,1.53771184170303,0.405012799814673
"oto32","middle",2091801.17085827,0.847045274933486,0.961665017037865,86.95238355952,1186.86809567435,1.26160944569373,9.3181743206574,0.220046889560433,1.229301438045,0.227645989085799,0.338090849526842,12.9106426536405,0.0319437754549091,1347.47782912289,539.330032117578,1528.42130604134,0.147299645071806,8.28817309131719,0.000872040210791312,1.45944232317828,1.37358205534806,1.40899160314008,0,1.41111795727679,0.400761199958083
"oto32","edge",1944431.10879644,0.914863638691778,1.10971051176153,92.2705759484496,1016.34027226741,2.81939642130267,9.08886707464043,0.21619824837447,1.07460058811514,0.227814895959732,0.275858931569115,13.4859540179046,0.0232518031417507,1247.73090021346,513.141771059613,1434.33422408787,0.0470447112485504,3.31434341366365,0.000697495234631417,1.58470772129078,1.49881972388791,1.51921641477469,0,1.52820476850011,0.411197711680244
"oto33","core",2054952.42936852,0.53351920440512,1.04011594423629,118.667683614999,1533.81252736252,1.22341037550785,7.94608991136223,0.203529136541061,1.15128168451218,0.133414268492952,0.203694217245177,0.750702820436503,0.0204743821313685,1498.84928153277,608.97875959171,1759.59588036386,-0.0150708940155157,15.3188142954202,-0.000292713581334301,0.0693764723339376,0.0666728941294941,0.0757354080233074,0,0.0719889397479535,0.407560596726376
"oto33","middle",1806494.48559264,0.428989111720452,1.20579858856326,100.508573856401,1791.65142866051,8.6475946270201,7.97279723023449,0.19732105656182,1.19197625383913,0.19289024378041,0.241965353119026,1.50469749097822,0.0247607747773329,1263.93959643925,512.67060047978,1463.85784403314,-0.0460044814387548,6.90596464052497,7.53005203831322e-05,0.122014161923631,0.109301723930779,0.117624240584057,0,0.116615571801866,0.405826883041553
"oto33","edge",1733393.5624348,0.0894958087583059,0.953668328474779,90.5496191349462,2625.13979846235,13.1664734369946,9.99472499605331,0.223592477018121,1.15614632227711,2.2102212824119,2.65752703745116,1.27242303810788,0.00877422957341501,1317.60977526622,542.418893809452,1582.14696440294,-0.12377226278329,12.2297648221924,0.00312343385185642,0.0470858348630398,0.060694452272608,0.047718915339712,0,0.0503509207900682,0.412293725632934
"oto34","core",1767327.30806951,0.88327055863457,1.7508035387588,101.242781168088,1450.89918958128,2.21018443325152,9.67036028120371,0.213013286506908,1.26262490792702,0.264409641671337,0.383486576977891,8.52805203470317,0.0329225944803388,1552.37594344606,623.066543411957,1785.67652283101,0.0109855914913718,7.34858619090378,0.00152290464101105,0.968544161241066,0.917169239908496,0.944122662393511,0.000162409053680707,0.942468999296829,0.402681877356453
"oto34","middle",1716850.81045695,0.839119476708424,1.63332319160002,91.6322138037968,1665.13055509828,2.42435918463414,9.51085389553252,0.211482056214727,1.25568278888306,0.233406540045037,0.387770703718275,11.5365628152875,0.0316482404557955,1420.68408570746,572.974980591014,1645.4615154244,0.0534069348089715,9.63336596174147,0.00104879140067671,1.0351740412167,1.01344172323131,0.995612848868046,6.62361994745436e-05,1.00756442169309,0.404183615785691
"oto34","edge",1638849.94252764,0.772293905842898,1.17988980255736,96.5488931638404,1084.19523173492,5.29023893206223,9.44999634721376,0.184113326045911,1.15013081358516,0.283972403925258,0.386601133952953,12.8278224950478,0.0354337491395866,1282.21199878954,520.244481788446,1511.44997870928,0.0977215634825905,17.015187202866,0.00548996051404955,1.1281997182095,1.13996065169714,1.11842049745736,0,1.12360495331961,0.406294201884902
"oto35","core",2142797.44621737,0.646869326456636,2.00999846827531,122.169710404036,711.802281205805,0.261495299440689,7.53960741175208,0.187998568757773,1.1899554825007,0.235838907178876,0.293890745621949,7.63970559158996,0.0817909298912578,1458.3916306923,578.967045991219,1674.85126144383,0.0369698956176417,9.0269087221753,0.000576407355896017,1.00555966409927,0.914449288266594,0.878877341426405,0,0.916526740132601,0.397780116484792
"oto35","middle",1999841.93907335,0.602337454634129,1.97944106843127,92.9447910744032,1181.2388820683,3.27136238509871,9.53312055097335,0.19714218434753,1.18974062003375,0.234780353092276,0.290799051530603,10.5422089291748,0.0600988923997026,1363.86086485671,547.952872036257,1554.71853518688,0.0997549147334005,11.6368030928262,0.000839508503178983,1.03555093204919,0.984691078789803,1.00646966822179,8.80577148444368e-05,1.00698633963632,0.403222947836455
"oto35","edge",1844028.31602435,0.465575483655224,1.53275594431876,100.842761314635,1428.72208456208,9.95621555374133,7.85171409433607,0.213245315759248,1.14816133640182,0.324374195965794,0.329147806862399,11.5072577675972,0.0872341937331047,1070.48054658002,419.697570517455,1197.23161778792,0.067231782306784,7.76939738086427,0.00149574209334433,0.996815131240567,0.920891824509593,0.97477592509699,0,0.966470486002694,0.392272046942633
"oto36","core",1665447.36885619,1.75564494096034,0.873808244423671,100.531017051142,1542.09477339521,1.88410851945674,8.64253913866693,0.193581289747092,1.30804464738864,0.892901760267719,0.98435192979703,3.33553664963193,0.0484954040549406,1439.61964568075,583.807939155516,1679.32334000387,0.0195047852167632,8.92687193040516,0.000425701698419304,0.0955927290845013,0.0878728325786866,0.0923710033865499,0,0.0919752277627018,0.40813111408639
"oto36","middle",1707872.46679819,0.635995475939812,0.939654048269027,86.6759224126962,1448.08422717878,3.65762093410112,7.90381289952227,0.186331959178889,1.15878796680784,0.453817970153356,0.567185634995828,2.45932810426792,0.0548815726256824,1401.43001586669,569.193973982997,1619.18511859543,0.0227859177668926,3.84817785560826,0.000765173475269532,0.0385811865466565,0.0674547153399468,0.0539209289942636,0.00015448343481426,0.0530246025250455,0.407467030166052
"oto36","edge",1593728.49219604,0.952844347259567,1.30933147769009,160.270571113267,1538.71362058138,4.38849531073246,9.23829823918108,0.248483309716801,1.4026165027478,6.01184548686774,6.23134913289697,3.63696649423532,0.0931211343298448,1488.95253414952,604.525791599679,1732.04597615423,0.0601611725976215,2.00085571938657,0.00039650037513666,0.0924486564073442,0.13198466681762,0.115943686428594,0,0.113458231113074,0.408551853358317
"oto37","core",1830864.34709261,0.739232413756925,1.07472470807018,108.06684125319,1579.0809288238,1.16149918362957,8.80723290029617,0.172303444708196,1.25653738224005,0.151517071298873,0.229140859550098,2.11756912687684,0.0250972055697094,1523.03286441042,626.551288072213,1781.92251015949,0.0481618960248405,14.2012217712208,-0.000907087093972338,0.0649429906632078,0.0639425741883984,0.0723061639383935,0,0.0684712245549916,0.412999160917842
"oto37","middle",1692207.72320077,0.423363754581383,1.22015239875366,89.9947455012993,1841.72029643061,3.56777043375602,8.80061032874588,0.17066250278595,1.17417674497916,0.199295462902041,0.233925002725891,2.01388259989854,0.0414418316685798,1349.01333567591,554.503751459979,1581.56848324771,0.0118438926396833,6.87824616369975,-0.000635682697846573,0.0688790866117514,0.0709630750689577,0.0757132781104106,0,0.0728060791626473,0.412600858724973
"oto37","edge",1641648.91039093,0.46018289205671,1.93878096485909,78.1311488192613,2017.67179284847,4.96937413682767,9.84635964141177,0.209822651103688,1.37401619300086,3.27583502339506,3.40909286467542,3.08666809320506,0.0736953887542128,1457.73474778119,612.186729677866,1679.19288252761,-0.0999974138642606,4.0690197702602,0.00110410538422026,0.0572492539776031,0.0171752914018476,0.0304845687096796,0,0.0340815403314122,0.424088933982665
"oto38","core",1631076.36794069,1.69084908933338,1.55166952109725,231.172096707754,1033.10255205891,1.14395516441126,7.00618408265536,0.203713897393919,1.13295595304691,0.30089694570554,0.334470848077602,2.72794327012695,0.00878003737452625,1431.04692246589,591.307427551248,1662.01317112106,0.0309567131186681,16.8550369043441,-9.29539389192534e-05,0.0324112355421019,0.0467965289377957,0.0363953063830823,0,0.0376471410069136,0.415286122598223
"oto38","middle",1494216.84748328,2.00635036767502,1.17980278158593,187.495459586184,1270.78175200916,2.72629084851926,6.65266899273737,0.183058288599933,1.23788520382094,0.159178482132582,0.242782868882319,3.19707468707038,0.0184621912448689,1425.68290509557,578.096116556976,1663.02835744801,-0.0166096061298735,18.8278833146003,-0.000198415957140395,0.0560526768043852,0.05956025337131,0.0455854633613181,0,0.0511891256503177,0.406595723758894
"oto38","edge",1388150.57493847,6.72467689432583,1.07572877788721,250.485998771691,1239.64519010966,5.38301349048431,25.3134832069833,0.208911177210915,1.22578932498688,2.51684225653276,2.67869878686932,10.6439836647713,0.0505085186307259,1479.26414903462,668.396307459291,1791.20188929857,-0.0263968615982501,18.996461241707,0.000892940728236107,0.0698598468559302,0.0359957481683536,0.0508650525226996,0,0.0521474998481113,0.452259701908856
"oto39","core",1953903.08945022,0.958951726652175,2.42400148778657,90.8208646817187,1870.15971174991,0.820515777518367,8.90326819563821,0.263510917691384,1.23165477680219,0.285436087106128,0.373199825921309,9.8789249508352,0.0308704997293776,1529.77858727052,618.105340343098,1775.9319614853,0.0549432679198248,19.783342399427,0.000984434711126248,0.390371916190665,0.432467209598602,0.421264790600679,-0.000233761886401419,0.415281015687178,0.40492180431151
"oto39","middle",1745171.15318342,1.33090183926691,2.31405861538748,101.680183499086,2136.96416752453,2.66804058058421,9.39069150399193,0.273924053484467,1.20797223708046,0.239962366155592,0.336131179800024,14.1814056220593,0.0243040226185894,1474.3380641945,589.154879076549,1690.12002797792,0.119191950289936,21.4585390691771,0.000681038987772508,0.523807746548596,0.472179133151324,0.476002941295585,-0.0001691537225991,0.486041632491524,0.400835459526238
"oto39","edge",1365620.47208952,2.96242245253509,2.61490379389095,142.248916046575,2838.31631871956,5.29673966169444,10.8370410341406,0.196419059261949,1.14133706098006,1.26460605031444,1.48866235674526,18.0264134031065,0.0208621291615162,1612.51356434825,631.410462229967,1870.13918691286,0.141874214112011,60.141906584807,0.00043060219501742,0.42991180460174,0.522757758822872,0.432620889519338,-0.000283151598245869,0.451144959077337,0.392796460166946
