"","specimen","length","weight","structure_weight","read_age","expected_age","average_grade","sample_date","hatch_date","percent_affected","other_problem","broken","side","common_name","run_number","scan_name","file_name","session_title","comments","file_path","11472","11464","11456","11448","11440","11432","11424","11416","11408","11400","11392","11384","11376","11368","11360","11352","11344","11336","11328","11320","11312","11304","11296","11288","11280","11272","11264","11256","11248","11240","11232","11224","11216","11208","11200","11192","11184","11176","11168","11160","11152","11144","11136","11128","11120","11112","11104","11096","11088","11080","11072","11064","11056","11048","11040","11032","11024","11016","11008","11000","10992","10984","10976","10968","10960","10952","10944","10936","10928","10920","10912","10904","10896","10888","10880","10872","10864","10856","10848","10840","10832","10824","10816","10808","10800","10792","10784","10776","10768","10760","10752","10744","10736","10728","10720","10712","10704","10696","10688","10680","10672","10664","10656","10648","10640","10632","10624","10616","10608","10600","10592","10584","10576","10568","10560","10552","10544","10536","10528","10520","10512","10504","10496","10488","10480","10472","10464","10456","10448","10440","10432","10424","10416","10408","10400","10392","10384","10376","10368","10360","10352","10344","10336","10328","10320","10312","10304","10296","10288","10280","10272","10264","10256","10248","10240","10232","10224","10216","10208","10200","10192","10184","10176","10168","10160","10152","10144","10136","10128","10120","10112","10104","10096","10088","10080","10072","10064","10056","10048","10040","10032","10024","10016","10008","10000","9992","9984","9976","9968","9960","9952","9944","9936","9928","9920","9912","9904","9896","9888","9880","9872","9864","9856","9848","9840","9832","9824","9816","9808","9800","9792","9784","9776","9768","9760","9752","9744","9736","9728","9720","9712","9704","9696","9688","9680","9672","9664","9656","9648","9640","9632","9624","9616","9608","9600","9592","9584","9576","9568","9560","9552","9544","9536","9528","9520","9512","9504","9496","9488","9480","9472","9464","9456","9448","9440","9432","9424","9416","9408","9400","9392","9384","9376","9368","9360","9352","9344","9336","9328","9320","9312","9304","9296","9288","9280","9272","9264","9256","9248","9240","9232","9224","9216","9208","9200","9192","9184","9176","9168","9160","9152","9144","9136","9128","9120","9112","9104","9096","9088","9080","9072","9064","9056","9048","9040","9032","9024","9016","9008","9000","8992","8984","8976","8968","8960","8952","8944","8936","8928","8920","8912","8904","8896","8888","8880","8872","8864","8856","8848","8840","8832","8824","8816","8808","8800","8792","8784","8776","8768","8760","8752","8744","8736","8728","8720","8712","8704","8696","8688","8680","8672","8664","8656","8648","8640","8632","8624","8616","8608","8600","8592","8584","8576","8568","8560","8552","8544","8536","8528","8520","8512","8504","8496","8488","8480","8472","8464","8456","8448","8440","8432","8424","8416","8408","8400","8392","8384","8376","8368","8360","8352","8344","8336","8328","8320","8312","8304","8296","8288","8280","8272","8264","8256","8248","8240","8232","8224","8216","8208","8200","8192","8184","8176","8168","8160","8152","8144","8136","8128","8120","8112","8104","8096","8088","8080","8072","8064","8056","8048","8040","8032","8024","8016","8008","8000","7992","7984","7976","7968","7960","7952","7944","7936","7928","7920","7912","7904","7896","7888","7880","7872","7864","7856","7848","7840","7832","7824","7816","7808","7800","7792","7784","7776","7768","7760","7752","7744","7736","7728","7720","7712","7704","7696","7688","7680","7672","7664","7656","7648","7640","7632","7624","7616","7608","7600","7592","7584","7576","7568","7560","7552","7544","7536","7528","7520","7512","7504","7496","7488","7480","7472","7464","7456","7448","7440","7432","7424","7416","7408","7400","7392","7384","7376","7368","7360","7352","7344","7336","7328","7320","7312","7304","7296","7288","7280","7272","7264","7256","7248","7240","7232","7224","7216","7208","7200","7192","7184","7176","7168","7160","7152","7144","7136","7128","7120","7112","7104","7096","7088","7080","7072","7064","7056","7048","7040","7032","7024","7016","7008","7000","6992","6984","6976","6968","6960","6952","6944","6936","6928","6920","6912","6904","6896","6888","6880","6872","6864","6856","6848","6840","6832","6824","6816","6808","6800","6792","6784","6776","6768","6760","6752","6744","6736","6728","6720","6712","6704","6696","6688","6680","6672","6664","6656","6648","6640","6632","6624","6616","6608","6600","6592","6584","6576","6568","6560","6552","6544","6536","6528","6520","6512","6504","6496","6488","6480","6472","6464","6456","6448","6440","6432","6424","6416","6408","6400","6392","6384","6376","6368","6360","6352","6344","6336","6328","6320","6312","6304","6296","6288","6280","6272","6264","6256","6248","6240","6232","6224","6216","6208","6200","6192","6184","6176","6168","6160","6152","6144","6136","6128","6120","6112","6104","6096","6088","6080","6072","6064","6056","6048","6040","6032","6024","6016","6008","6000","5992","5984","5976","5968","5960","5952","5944","5936","5928","5920","5912","5904","5896","5888","5880","5872","5864","5856","5848","5840","5832","5824","5816","5808","5800","5792","5784","5776","5768","5760","5752","5744","5736","5728","5720","5712","5704","5696","5688","5680","5672","5664","5656","5648","5640","5632","5624","5616","5608","5600","5592","5584","5576","5568","5560","5552","5544","5536","5528","5520","5512","5504","5496","5488","5480","5472","5464","5456","5448","5440","5432","5424","5416","5408","5400","5392","5384","5376","5368","5360","5352","5344","5336","5328","5320","5312","5304","5296","5288","5280","5272","5264","5256","5248","5240","5232","5224","5216","5208","5200","5192","5184","5176","5168","5160","5152","5144","5136","5128","5120","5112","5104","5096","5088","5080","5072","5064","5056","5048","5040","5032","5024","5016","5008","5000","4992","4984","4976","4968","4960","4952","4944","4936","4928","4920","4912","4904","4896","4888","4880","4872","4864","4856","4848","4840","4832","4824","4816","4808","4800","4792","4784","4776","4768","4760","4752","4744","4736","4728","4720","4712","4704","4696","4688","4680","4672","4664","4656","4648","4640","4632","4624","4616","4608","4600","4592","4584","4576","4568","4560","4552","4544","4536","4528","4520","4512","4504","4496","4488","4480","4472","4464","4456","4448","4440","4432","4424","4416","4408","4400","4392","4384","4376","4368","4360","4352","4344","4336","4328","4320","4312","4304","4296","4288","4280","4272","4264","4256","4248","4240","4232","4224","4216","4208","4200","4192","4184","4176","4168","4160","4152","4144","4136","4128","4120","4112","4104","4096","4088","4080","4072","4064","4056","4048","4040","4032","4024","4016"
"1",1,105,10,0.0077,NA,123,NA,215,96,0,0,0,"R","PACIFIC COD",2,"LPW202001202_1_OA2","PACIFIC_COD_LPW202001202_1_OA2.0","NIR_LPW202001202_otoliths_rescan_1","","/Users/zachstamplis/Desktop/Thesis and Otoliths/Github/LPW_FT-NIRS/FT-NIRS_spectra/LPW_scans/PACIFIC_COD_LPW202001202_1_OA2.0",0.000177828,0.000216292,0.000232749,0.000216663,0.00017546,0.000124115,7.61e-05,4.31e-05,2.85e-05,3.28e-05,5.41e-05,8.15e-05,0.000111098,0.0001448,0.000165557,0.0001524,0.000111318,6.59e-05,4.52e-05,6.75e-05,0.000111015,0.000137821,0.000137858,0.000121421,9.8e-05,7.66e-05,6.46e-05,6.07e-05,6e-05,6.53e-05,8.29e-05,0.000106004,0.000123693,0.000139318,0.000149221,0.000135923,0.000101234,7.36e-05,7.29e-05,8.91e-05,0.000104579,0.000117288,0.000124984,0.000119234,0.000105744,0.000101876,0.000115217,0.000140623,0.000160866,0.000158943,0.000140824,0.000125028,0.000114236,9.8e-05,7.54e-05,5.67e-05,4.56e-05,4.26e-05,5.91e-05,9.74e-05,0.000132535,0.000147465,0.000147368,0.000139391,0.000132534,0.000131898,0.000131915,0.000129964,0.000126945,0.00011772,9.9e-05,7.92e-05,6.67e-05,5.82e-05,4.91e-05,4.57e-05,6.03e-05,9.12e-05,0.000122691,0.000142141,0.000142017,0.000122141,9.33e-05,6.33e-05,3.81e-05,3.46e-05,5.81e-05,8.87e-05,0.000110994,0.000127436,0.000146494,0.000167885,0.000179133,0.000168905,0.000139411,0.000104601,7.69e-05,6.07e-05,5.55e-05,5.94e-05,6.95e-05,8.2e-05,9.81e-05,0.000118642,0.00013744,0.000143738,0.000129675,0.000101091,7.2e-05,5.5e-05,5.52e-05,6.44e-05,7.62e-05,9.52e-05,0.000118744,0.000133613,0.000133226,0.000123245,0.000110393,9.65e-05,8.15e-05,6.81e-05,5.92e-05,5.4e-05,6.08e-05,8.61e-05,0.000117913,0.000142495,0.0001534,0.000144668,0.000121879,0.000101208,8.38e-05,6.15e-05,3.9e-05,2.6e-05,2.7e-05,4.08e-05,6.22e-05,8.38e-05,9.4e-05,9.14e-05,9.11e-05,9.93e-05,0.000107988,0.000113951,0.000116566,0.000110192,9.37e-05,7.67e-05,7.17e-05,8.14e-05,9.41e-05,0.000100504,0.000103488,0.000103783,9.9e-05,8.84e-05,7.38e-05,6.18e-05,5.53e-05,4.98e-05,4.61e-05,5.32e-05,7.43e-05,9.46e-05,9.66e-05,8.79e-05,8.9e-05,0.000102608,0.00011585,0.000119892,0.000115472,0.000108518,0.000100166,8.65e-05,6.99e-05,5.88e-05,5.53e-05,5.27e-05,4.77e-05,4.91e-05,6.37e-05,7.94e-05,8.03e-05,7.12e-05,6.65e-05,6.95e-05,7.3e-05,7.18e-05,7.18e-05,7.94e-05,8.99e-05,9.38e-05,8.86e-05,8.29e-05,8.27e-05,8.02e-05,6.79e-05,5.18e-05,4.19e-05,3.63e-05,3.27e-05,3.74e-05,4.94e-05,6e-05,6.57e-05,6.98e-05,7.55e-05,8.01e-05,8.13e-05,7.79e-05,6.72e-05,5.35e-05,4.57e-05,4.68e-05,5.55e-05,6.81e-05,7.99e-05,8.46e-05,7.82e-05,6.65e-05,5.86e-05,5.39e-05,4.93e-05,4.72e-05,4.68e-05,4.55e-05,4.34e-05,3.84e-05,2.91e-05,1.79e-05,7.93e-06,3.84e-06,1.03e-05,3.06e-05,6.08e-05,8.6e-05,9.75e-05,0.000100331,9.85e-05,9.16e-05,8.15e-05,7.13e-05,6.25e-05,5.41e-05,4.51e-05,3.87e-05,3.89e-05,4.42e-05,4.86e-05,4.76e-05,4.39e-05,4.12e-05,3.66e-05,3.04e-05,3.19e-05,4.5e-05,6.17e-05,7.4e-05,8.03e-05,8.23e-05,8.05e-05,7.22e-05,5.63e-05,3.71e-05,2.13e-05,1.66e-05,2.32e-05,3.45e-05,4.56e-05,5.13e-05,4.61e-05,3.29e-05,2.09e-05,1.4e-05,1.17e-05,1.51e-05,2.74e-05,4.95e-05,7.12e-05,8.16e-05,8.03e-05,6.82e-05,4.83e-05,2.77e-05,1.37e-05,1.19e-05,1.88e-05,2.52e-05,3.03e-05,4.11e-05,5.58e-05,6.4e-05,5.98e-05,4.77e-05,3.4e-05,1.9e-05,3.79e-06,-6e-06,-8.54e-06,-4.04e-06,4.5e-06,1.24e-05,2.3e-05,3.84e-05,4.91e-05,4.97e-05,4.67e-05,4.39e-05,3.75e-05,2.69e-05,1.9e-05,1.69e-05,1.52e-05,1.12e-05,4.9e-06,-1.54e-06,-2.66e-06,2.13e-06,8.12e-06,1.37e-05,1.96e-05,2.38e-05,2.71e-05,3.28e-05,3.95e-05,4.35e-05,4.22e-05,3.51e-05,2.64e-05,2.28e-05,2.73e-05,3.25e-05,2.96e-05,2.08e-05,1.3e-05,1.12e-05,1.69e-05,2.56e-05,3.27e-05,3.78e-05,3.97e-05,3.46e-05,2.51e-05,1.61e-05,1e-05,8.99e-06,1.17e-05,1.53e-05,2.02e-05,2.8e-05,3.72e-05,4.4e-05,4.56e-05,4.27e-05,3.44e-05,1.97e-05,5.12e-06,-2.55e-06,-4.6e-06,-5.4e-06,-6.32e-06,-4.45e-06,1.63e-06,8.06e-06,1.12e-05,1.18e-05,1.11e-05,6.64e-06,-3.35e-06,-1.6e-05,-2.52e-05,-2.86e-05,-2.93e-05,-2.83e-05,-2.23e-05,-1.05e-05,-7.31e-07,7.14e-07,-1.28e-06,-2.1e-06,-3.77e-06,-8.13e-06,-1.46e-05,-2.07e-05,-2.46e-05,-2.8e-05,-3.31e-05,-3.67e-05,-3.66e-05,-3.54e-05,-3.51e-05,-3.35e-05,-2.79e-05,-2.01e-05,-1.18e-05,-4.64e-06,-3.84e-06,-1.11e-05,-1.96e-05,-2.45e-05,-2.92e-05,-3.74e-05,-4.47e-05,-4.44e-05,-3.71e-05,-2.88e-05,-2.49e-05,-2.69e-05,-3.2e-05,-3.85e-05,-4.73e-05,-5.6e-05,-5.94e-05,-5.74e-05,-5.68e-05,-5.84e-05,-5.43e-05,-4.34e-05,-3.52e-05,-3.57e-05,-4.16e-05,-4.82e-05,-5.33e-05,-5.6e-05,-5.62e-05,-5.49e-05,-5.47e-05,-5.76e-05,-6.21e-05,-6.5e-05,-6.42e-05,-6.29e-05,-6.48e-05,-6.84e-05,-7.13e-05,-7.09e-05,-6.44e-05,-5.27e-05,-4.25e-05,-3.94e-05,-4.32e-05,-5.08e-05,-5.78e-05,-6.19e-05,-6.61e-05,-7.02e-05,-7.04e-05,-6.66e-05,-6.01e-05,-5.12e-05,-4.27e-05,-4e-05,-4.54e-05,-5.55e-05,-6.48e-05,-7.11e-05,-7.56e-05,-7.94e-05,-8.26e-05,-8.47e-05,-8.4e-05,-8.09e-05,-7.74e-05,-7.49e-05,-7.52e-05,-7.76e-05,-7.89e-05,-7.74e-05,-7.43e-05,-7.14e-05,-6.9e-05,-6.66e-05,-6.4e-05,-6.18e-05,-6.14e-05,-6.34e-05,-6.7e-05,-7.11e-05,-7.43e-05,-7.51e-05,-7.29e-05,-6.7e-05,-5.99e-05,-5.54e-05,-5.51e-05,-5.75e-05,-6.15e-05,-6.7e-05,-7.23e-05,-7.55e-05,-7.6e-05,-7.21e-05,-6.41e-05,-5.6e-05,-5.06e-05,-4.81e-05,-5.05e-05,-5.92e-05,-6.96e-05,-7.59e-05,-7.77e-05,-7.75e-05,-7.71e-05,-7.47e-05,-6.64e-05,-5.32e-05,-4.34e-05,-4.65e-05,-6.08e-05,-7.69e-05,-8.8e-05,-9.32e-05,-9.58e-05,-9.71e-05,-9.81e-05,-9.63e-05,-8.77e-05,-7.39e-05,-5.6e-05,-3.58e-05,-2.19e-05,-1.9e-05,-2.13e-05,-2.17e-05,-1.98e-05,-1.7e-05,-1.47e-05,-1.25e-05,-4.4e-06,1.31e-05,3.95e-05,7.13e-05,9.89e-05,0.000120439,0.000138323,0.000148738,0.000153678,0.000160361,0.000169664,0.000179187,0.000186811,0.00019042,0.000192067,0.000194471,0.000194928,0.000192215,0.000185758,0.000174944,0.000164398,0.000153514,0.000138631,0.000122971,0.000106791,8.73e-05,6.69e-05,4.8e-05,3.14e-05,1.84e-05,9.4e-06,4.18e-06,-5.64e-07,-8.25e-06,-1.73e-05,-2.62e-05,-3.69e-05,-5.03e-05,-6.5e-05,-7.83e-05,-8.84e-05,-9.62e-05,-0.000104129,-0.000113204,-0.000121926,-0.000129122,-0.000136339,-0.000144206,-0.000151173,-0.0001571,-0.000163258,-0.000170093,-0.00017827,-0.000189126,-0.000202467,-0.000216326,-0.000228606,-0.000238154,-0.000245805,-0.000252903,-0.000259143,-0.000263597,-0.000265583,-0.000264627,-0.000261643,-0.000259611,-0.000261354,-0.000266562,-0.000272519,-0.000276834,-0.000279512,-0.000282443,-0.000285716,-0.000287977,-0.000288129,-0.00028546,-0.000281517,-0.000278829,-0.000277754,-0.000278415,-0.000281445,-0.000284671,-0.000284738,-0.000281507,-0.000277448,-0.000274996,-0.00027429,-0.00027307,-0.000269969,-0.00026512,-0.000259542,-0.000254688,-0.000250507,-0.000246947,-0.000245131,-0.000244269,-0.000242569,-0.000240778,-0.000240931,-0.000243262,-0.000245788,-0.000246183,-0.000243953,-0.000240558,-0.000237938,-0.000237073,-0.00023754,-0.000238291,-0.000238649,-0.000238108,-0.000236611,-0.000235772,-0.000237123,-0.000239326,-0.000239854,-0.000239097,-0.000239593,-0.000242236,-0.000245797,-0.000248888,-0.000250729,-0.000250661,-0.000248742,-0.00024615,-0.000243636,-0.000241627,-0.000241319,-0.000242804,-0.000245091,-0.000248492,-0.000252798,-0.000255966,-0.000256433,-0.000254105,-0.000250131,-0.000245626,-0.000240805,-0.000236277,-0.000232634,-0.000229878,-0.000228528,-0.000228848,-0.000229913,-0.000230721,-0.000230494,-0.000228973,-0.000227255,-0.0002261,-0.000224786,-0.000222892,-0.000220607,-0.000217973,-0.000215135,-0.000212084,-0.00020853,-0.000203823,-0.000197057,-0.000188861,-0.00018107,-0.00017431,-0.000168718,-0.00016434,-0.000160755,-0.000158503,-0.000158975,-0.000161952,-0.000165451,-0.000168325,-0.000170484,-0.000171542,-0.000171796,-0.000172715,-0.000175102,-0.000177792,-0.000178857,-0.000177867,-0.00017634,-0.000176227,-0.000178414,-0.000182724,-0.000188497,-0.000195071,-0.000202193,-0.000209079,-0.000214653,-0.000218834,-0.000221346,-0.000220805,-0.000216473,-0.000210261,-0.000205719,-0.000204319,-0.000204649,-0.000205674,-0.000207847,-0.000211782,-0.000217349,-0.000223346,-0.000228441,-0.000232181,-0.000234439,-0.00023516,-0.000235371,-0.000236333,-0.000238184,-0.00024059,-0.000242259,-0.000242221,-0.000242771,-0.000245786,-0.000248296,-0.000246533,-0.000242192,-0.000240628,-0.000242221,-0.000243789,-0.000244302,-0.000245438,-0.000249166,-0.000250359,-0.000241161,-0.000223127,-0.000206367,-0.000195276,-0.000184564,-0.000171896,-0.000156112,-0.000135612,-0.000118271,-0.000111567,-0.000105491,-8.12e-05,-3.28e-05,3.29e-05,0.000112685,0.000202991,0.000298899,0.000404192,0.000521492,0.000640997,0.000753771,0.000858108,0.000944547,0.001003785,0.001042918,0.001066646,0.00106117,0.001013892,0.000931252,0.000828964,0.000714424,0.000588365,0.000455778,0.000324947,0.000204246,9.84e-05,2.54e-06,-9.1e-05,-0.000179679,-0.000256201,-0.000320758,-0.000378967,-0.000432886,-0.000479485,-0.00051587,-0.000543239,-0.000563318,-0.000574689,-0.000578061,-0.0005783,-0.000578457,-0.000578815,-0.000578387,-0.000576068,-0.000573017,-0.000570778,-0.000568131,-0.000562771,-0.00055308,-0.000538282,-0.000518425,-0.000493726,-0.000464698,-0.000433193,-0.000401277,-0.000369617,-0.000338741,-0.000310271,-0.000286403,-0.000267934,-0.000254079,-0.00024427,-0.000238398,-0.000236211,-0.000237665,-0.000242584,-0.000250413,-0.000260745,-0.000273062,-0.000286267,-0.000299201,-0.000311509,-0.000323164,-0.000333732,-0.000342811,-0.000350263,-0.000356097,-0.000360628,-0.00036442,-0.000367279,-0.000368131,-0.000366892,-0.00036515,-0.000364729,-0.000366566,-0.000372018,-0.000383341,-0.000401409,-0.000425155,-0.000453437,-0.00048559,-0.000520705,-0.000556493,-0.000589708,-0.000617801,-0.000638945,-0.000652173,-0.000657261,-0.000653457,-0.000640151,-0.000618078,-0.000588531,-0.000553079,-0.0005147,-0.000477092,-0.000442221,-0.000409851,-0.00037857,-0.000346951,-0.000314195,-0.00027916,-0.000239684,-0.000192828,-0.00013663,-7.15e-05,1.11e-06,7.99e-05,0.000162637,0.000245113,0.000320971,0.000382082,0.000418668,0.000421933,0.000387685,0.000317914,0.000223139,0.000121367,2.94e-05,-4.38e-05,-9.52e-05,-0.000124004,-0.000133167,-0.000129483,-0.000120443,-0.00011046,-0.000102719,-0.000103497,-0.000120856,-0.000157417,-0.000208023,-0.000263151,-0.000315124,-0.000359554,-0.000389469,-0.000394917,-0.000370059,-0.000315189,-0.000234068,-0.000134093,-2.95e-05,6.23e-05,0.000131559,0.000180637,0.000218601,0.000253723,0.000291641,0.000335007,0.00038421,0.000437277,0.000489501,0.00053559,0.000571694,0.000594591,0.00060069,0.000590751,0.000571765,0.000549563,0.000526179,0.000505565,0.000493801,0.000487893,0.000476002,0.000450666
"2",2,85,4,0.0067,129,123,2.5,215,89,0,0,0,"L","PACIFIC COD",2,"LPW202001202_2_OA2","PACIFIC_COD_LPW202001202_2_OA2.0","NIR_LPW202001202_otoliths_rescan_1","","/Users/zachstamplis/Desktop/Thesis and Otoliths/Github/LPW_FT-NIRS/FT-NIRS_spectra/LPW_scans/PACIFIC_COD_LPW202001202_2_OA2.0",9.71e-05,8.55e-05,8.21e-05,8.26e-05,7.84e-05,6.61e-05,4.76e-05,2.38e-05,1.17e-05,3.04e-05,6.4e-05,9.41e-05,0.000130453,0.000172151,0.000186018,0.000152448,0.000102202,7.99e-05,9.4e-05,0.000118354,0.000129433,0.000124107,0.000114757,0.000117759,0.000124346,0.000116181,0.000102769,9.15e-05,7.35e-05,6.43e-05,9.19e-05,0.000142333,0.000174128,0.000174848,0.000157625,0.000130775,9.64e-05,6.08e-05,3.17e-05,1.62e-05,2.12e-05,3.96e-05,5.47e-05,6.69e-05,8.6e-05,0.00010897,0.000131804,0.000155988,0.00017256,0.000167564,0.000148156,0.00013222,0.000122161,0.000107914,8.09e-05,4.4e-05,6.68e-06,-1.14e-05,1.47e-05,7.83e-05,0.000143227,0.000182633,0.000193136,0.000183488,0.000166848,0.000151429,0.000135206,0.000119213,0.000103422,8.22e-05,6.03e-05,4.8e-05,4.73e-05,5.06e-05,4.82e-05,4.3e-05,4.75e-05,6.62e-05,9.11e-05,0.000113603,0.00012566,0.000119624,9.79e-05,7.02e-05,4.88e-05,4.78e-05,6.58e-05,8.38e-05,9.72e-05,0.000113251,0.000126711,0.000129576,0.000125042,0.000118038,0.000112683,0.000111547,0.00011593,0.000128424,0.000138015,0.000129407,0.000106808,8.16e-05,6.26e-05,5.79e-05,6.35e-05,6.99e-05,8.21e-05,0.000103081,0.000123646,0.000141355,0.000151828,0.000145382,0.00012073,8.45e-05,5.19e-05,3.44e-05,3.11e-05,3.78e-05,5.07e-05,6.56e-05,8e-05,9.17e-05,9.82e-05,9.94e-05,9.66e-05,9.4e-05,9.98e-05,0.000114451,0.000130215,0.000138666,0.00013197,0.000110139,8.28e-05,5.61e-05,2.98e-05,1.2e-05,1.36e-05,3.21e-05,6.08e-05,9.21e-05,0.000115164,0.000122369,0.000119465,0.000118445,0.000118346,0.000115982,0.000116187,0.000117084,0.000109461,9.41e-05,8.15e-05,7.28e-05,6.22e-05,4.92e-05,4.04e-05,4.41e-05,5.46e-05,6.03e-05,6.1e-05,6.22e-05,6.26e-05,5.53e-05,4.35e-05,3.77e-05,4.18e-05,5.63e-05,7.8e-05,0.000102459,0.000132015,0.000162296,0.00017405,0.000158561,0.00013124,0.000106605,8.01e-05,4.68e-05,1.59e-05,-5.9e-06,-1.87e-05,-1.69e-05,3.67e-06,3.68e-05,7.11e-05,9.84e-05,0.000116493,0.000127822,0.00013465,0.000135213,0.000125173,0.000103245,7.46e-05,4.59e-05,2.33e-05,1.23e-05,1.1e-05,1.47e-05,2.17e-05,2.97e-05,3.66e-05,4.2e-05,4.67e-05,5.52e-05,6.99e-05,8.57e-05,9.71e-05,0.0001007,9.55e-05,8.7e-05,8.11e-05,7.59e-05,6.63e-05,5.41e-05,4.76e-05,4.83e-05,5.42e-05,6.23e-05,6.56e-05,6.24e-05,5.85e-05,5.7e-05,5.46e-05,5.19e-05,5.18e-05,5.09e-05,4.93e-05,5.39e-05,6.18e-05,5.85e-05,4e-05,2.19e-05,1.38e-05,1.19e-05,1.6e-05,2.69e-05,4.09e-05,5.62e-05,7.17e-05,8.5e-05,9.55e-05,0.000103224,0.000101423,8.34e-05,5.86e-05,4.58e-05,5.01e-05,5.89e-05,6.05e-05,5.68e-05,5.24e-05,4.78e-05,4.33e-05,4.07e-05,3.96e-05,3.57e-05,2.94e-05,2.63e-05,3.2e-05,4.64e-05,6.11e-05,6.8e-05,6.44e-05,5.37e-05,4.33e-05,3.5e-05,2.54e-05,1.66e-05,1.33e-05,1.43e-05,2.03e-05,3.58e-05,5.25e-05,5.97e-05,5.94e-05,5.78e-05,5.32e-05,4.03e-05,2.25e-05,9.93e-06,7.45e-06,1.18e-05,1.73e-05,2.07e-05,2.24e-05,2.55e-05,3.01e-05,3.44e-05,4.1e-05,4.89e-05,5.18e-05,4.97e-05,4.76e-05,4.7e-05,4.6e-05,3.86e-05,2.38e-05,1.1e-05,7.31e-06,9.14e-06,1.23e-05,1.59e-05,1.61e-05,9.92e-06,3.42e-06,5.68e-06,1.76e-05,3.24e-05,4.1e-05,3.89e-05,3.09e-05,2.69e-05,3.14e-05,3.74e-05,3.66e-05,2.85e-05,1.48e-05,-6.43e-07,-8.82e-06,-7.15e-06,-4.41e-06,-4.98e-06,-4.62e-06,-1.99e-06,3.87e-06,1.59e-05,2.99e-05,3.38e-05,2.47e-05,1.51e-05,1.45e-05,1.99e-05,2.59e-05,2.9e-05,2.7e-05,2.26e-05,1.77e-05,1.06e-05,3.69e-06,4.64e-06,1.41e-05,2.32e-05,3.04e-05,4.39e-05,5.93e-05,6.11e-05,4.79e-05,2.93e-05,1.2e-05,-1.16e-06,-8.9e-06,-1.03e-05,-5.96e-06,7.51e-07,6.98e-06,1.26e-05,1.9e-05,2.55e-05,2.51e-05,1.32e-05,-1.82e-06,-9.21e-06,-1.08e-05,-1.16e-05,-1.03e-05,-6.46e-06,-6.07e-06,-1.05e-05,-1.29e-05,-9.12e-06,-3.64e-06,-3.21e-06,-6.24e-06,-5.38e-06,8.63e-07,5.63e-06,3.06e-06,-4.15e-06,-9.34e-06,-1.1e-05,-1.38e-05,-1.78e-05,-1.8e-05,-1.52e-05,-1.41e-05,-1.54e-05,-1.81e-05,-2.04e-05,-2.24e-05,-2.68e-05,-3.4e-05,-4.01e-05,-4.26e-05,-4.34e-05,-4.49e-05,-4.38e-05,-3.7e-05,-2.97e-05,-2.65e-05,-2.48e-05,-2.24e-05,-1.97e-05,-1.78e-05,-2.04e-05,-2.93e-05,-3.93e-05,-4.53e-05,-4.78e-05,-4.87e-05,-4.79e-05,-4.49e-05,-4.31e-05,-4.39e-05,-4.2e-05,-3.78e-05,-3.83e-05,-4.43e-05,-4.97e-05,-5e-05,-4.58e-05,-4.19e-05,-4.24e-05,-4.69e-05,-5.28e-05,-5.88e-05,-6.45e-05,-6.9e-05,-7.22e-05,-7.59e-05,-7.97e-05,-7.79e-05,-6.8e-05,-5.43e-05,-4.31e-05,-3.78e-05,-4.02e-05,-4.89e-05,-5.75e-05,-6.37e-05,-6.95e-05,-7.32e-05,-7.32e-05,-7.14e-05,-6.62e-05,-5.57e-05,-4.52e-05,-4.13e-05,-4.37e-05,-5.08e-05,-6.12e-05,-7.02e-05,-7.24e-05,-6.87e-05,-6.54e-05,-6.35e-05,-6.03e-05,-5.86e-05,-6.04e-05,-6.36e-05,-6.83e-05,-7.4e-05,-7.8e-05,-7.99e-05,-8.15e-05,-8.25e-05,-8.17e-05,-8.11e-05,-8.38e-05,-8.81e-05,-9.05e-05,-9.11e-05,-9.08e-05,-8.92e-05,-8.76e-05,-8.57e-05,-8.18e-05,-7.74e-05,-7.4e-05,-7.09e-05,-6.69e-05,-6.41e-05,-6.5e-05,-6.66e-05,-6.65e-05,-6.69e-05,-6.87e-05,-7.14e-05,-7.46e-05,-7.69e-05,-7.59e-05,-7.42e-05,-7.51e-05,-7.64e-05,-7.52e-05,-7.3e-05,-7.1e-05,-6.84e-05,-6.59e-05,-6.58e-05,-6.76e-05,-6.91e-05,-7.18e-05,-7.6e-05,-7.86e-05,-7.95e-05,-8.17e-05,-8.57e-05,-8.73e-05,-8.23e-05,-7.26e-05,-6.67e-05,-7.05e-05,-7.92e-05,-8.66e-05,-9.02e-05,-9.06e-05,-9.07e-05,-9.18e-05,-9.37e-05,-9.37e-05,-8.75e-05,-7.57e-05,-6.04e-05,-4.5e-05,-3.77e-05,-3.96e-05,-4.16e-05,-3.99e-05,-3.72e-05,-3.27e-05,-2.65e-05,-2.04e-05,-1.03e-05,5.87e-06,2.5e-05,4.61e-05,6.67e-05,8.5e-05,9.96e-05,0.000106883,0.000111595,0.000119625,0.000129947,0.000141655,0.000151783,0.000155584,0.00015604,0.000157502,0.000155985,0.000150091,0.000141294,0.000127624,0.000112285,9.9e-05,8.78e-05,7.94e-05,7.06e-05,5.86e-05,4.54e-05,3.18e-05,1.97e-05,1.12e-05,3.93e-06,-4.35e-06,-1.35e-05,-2.4e-05,-3.54e-05,-4.7e-05,-5.97e-05,-7.41e-05,-9.01e-05,-0.00010421,-0.00011226,-0.000114396,-0.000113699,-0.000114361,-0.00011876,-0.000125743,-0.000133758,-0.000141767,-0.000148732,-0.000156385,-0.000166737,-0.000177716,-0.000187584,-0.000196538,-0.000203969,-0.000209785,-0.000215081,-0.000221542,-0.000229059,-0.000234976,-0.000239327,-0.000244254,-0.000249288,-0.000253651,-0.00025774,-0.000261022,-0.000263762,-0.000267395,-0.000271324,-0.000273648,-0.000273628,-0.000272319,-0.000270552,-0.000268224,-0.000266485,-0.000266439,-0.000267395,-0.000269547,-0.000273382,-0.000277045,-0.000279032,-0.000279451,-0.000277761,-0.000273377,-0.000266987,-0.000260689,-0.000257217,-0.000257053,-0.000257696,-0.000256715,-0.000254186,-0.0002515,-0.000249119,-0.000246037,-0.000242403,-0.000240944,-0.000242046,-0.000242628,-0.00024182,-0.000241329,-0.000241525,-0.000240582,-0.000236889,-0.000231852,-0.000228818,-0.000228921,-0.000230673,-0.000232224,-0.000232947,-0.000234438,-0.000237221,-0.000238867,-0.000239064,-0.000239222,-0.000238404,-0.000236544,-0.00023643,-0.000239611,-0.000244095,-0.000246863,-0.000247097,-0.000246248,-0.000245673,-0.000245426,-0.000244983,-0.000244133,-0.000243382,-0.00024372,-0.000245628,-0.000248929,-0.000252533,-0.000254488,-0.000253705,-0.000250913,-0.00024719,-0.00024323,-0.000240147,-0.000238291,-0.000236945,-0.000236496,-0.000236846,-0.000236495,-0.000235579,-0.000234398,-0.00023172,-0.000227937,-0.000225571,-0.00022545,-0.000225411,-0.000223989,-0.000222389,-0.000221497,-0.000220143,-0.000217615,-0.000214203,-0.000209466,-0.000203194,-0.000196127,-0.000189004,-0.000182674,-0.000177809,-0.00017371,-0.000169579,-0.000166091,-0.000164278,-0.000164352,-0.000165641,-0.000167287,-0.000169189,-0.000171766,-0.000175516,-0.000180275,-0.000184982,-0.000188737,-0.000190771,-0.000190637,-0.000188898,-0.000186736,-0.000185632,-0.000187495,-0.00019322,-0.000201359,-0.000209963,-0.000217874,-0.000224209,-0.000227742,-0.000227794,-0.000225261,-0.00022074,-0.00021462,-0.000209043,-0.000206268,-0.000206902,-0.000210402,-0.000215424,-0.000220786,-0.000226235,-0.000231346,-0.000235924,-0.000240056,-0.000242588,-0.00024284,-0.000242107,-0.000241883,-0.000242698,-0.000244084,-0.000244748,-0.000244413,-0.00024546,-0.000249313,-0.000252641,-0.000251894,-0.000248713,-0.000246939,-0.000246027,-0.000244612,-0.00024384,-0.00024504,-0.000249011,-0.000250639,-0.00024282,-0.000227635,-0.0002143,-0.00020567,-0.000196215,-0.000184419,-0.000169425,-0.000149326,-0.000132924,-0.000128863,-0.000126179,-0.000104567,-5.89e-05,1.97e-06,7.37e-05,0.000153312,0.000235999,0.000325948,0.00042745,0.000532083,0.000631309,0.00072322,0.000798349,0.000848484,0.000881876,0.000903418,0.000899258,0.000857239,0.000784297,0.000695492,0.000596111,0.000485705,0.000369864,0.000256241,0.000150718,5.66e-05,-3.05e-05,-0.000116497,-0.000198032,-0.000267406,-0.000324268,-0.000374238,-0.000420262,-0.000460213,-0.00049132,-0.000514218,-0.000530704,-0.000540573,-0.000544639,-0.000546056,-0.000546423,-0.000545768,-0.000544174,-0.000541336,-0.000537448,-0.000532722,-0.000525983,-0.000516394,-0.000503944,-0.000488727,-0.00047065,-0.000448342,-0.000420725,-0.000390187,-0.000360109,-0.000330911,-0.000302503,-0.000276527,-0.00025455,-0.000237017,-0.000224118,-0.000216241,-0.000213209,-0.000214068,-0.000218055,-0.000224648,-0.000233251,-0.000243371,-0.000254317,-0.000265278,-0.000276154,-0.00028755,-0.000299064,-0.000309499,-0.00031898,-0.000328139,-0.00033668,-0.000343675,-0.000348233,-0.000349864,-0.000348385,-0.000344622,-0.000341276,-0.000341079,-0.000344485,-0.000351733,-0.000364774,-0.00038499,-0.00041157,-0.000442627,-0.000476185,-0.000510815,-0.000545203,-0.000577296,-0.000604728,-0.000625354,-0.000638185,-0.000642886,-0.000638195,-0.000624379,-0.000604026,-0.00057828,-0.000547431,-0.00051353,-0.000479331,-0.000446474,-0.000414808,-0.000383269,-0.000351307,-0.000318899,-0.00028514,-0.000247757,-0.000204066,-0.000152365,-9.26e-05,-2.5e-05,4.99e-05,0.000129763,0.000210322,0.000284761,0.000344163,0.000378745,0.000379967,0.000344804,0.000276395,0.000184293,8.53e-05,-3.18e-06,-7.19e-05,-0.000118713,-0.000144352,-0.000151562,-0.000146022,-0.000134872,-0.00012307,-0.000113809,-0.000113096,-0.000128495,-0.000161852,-0.000208423,-0.000259466,-0.000307246,-0.000347757,-0.000375492,-0.000381527,-0.000359329,-0.000308446,-0.000233817,-0.00014398,-5.16e-05,2.84e-05,8.77e-05,0.000128973,0.000160935,0.000190603,0.000223435,0.00026298,0.000309885,0.000361791,0.000414366,0.000462313,0.000499669,0.000522164,0.000528522,0.000520965,0.000505969,0.000490046,0.00047608,0.000466235,0.000462412,0.000459353,0.000447827,0.000423206
"3",3,96,7,0.0073,NA,123,NA,215,114,0,0,0,"R","PACIFIC COD",2,"LPW202001202_3_OA2","PACIFIC_COD_LPW202001202_3_OA2.0","NIR_LPW202001202_otoliths_rescan_1","","/Users/zachstamplis/Desktop/Thesis and Otoliths/Github/LPW_FT-NIRS/FT-NIRS_spectra/LPW_scans/PACIFIC_COD_LPW202001202_3_OA2.0",0.000176745,0.000167935,0.000143171,0.000110706,8.15e-05,6.05e-05,4.85e-05,5.67e-05,8.5e-05,0.00010504,0.000103073,9.49e-05,9.56e-05,0.000108616,0.000127225,0.000139313,0.000139941,0.000140403,0.000155018,0.000175544,0.000182653,0.000167378,0.00012868,7.53e-05,3.33e-05,2.82e-05,5.58e-05,8.9e-05,0.00010889,0.000119205,0.000132745,0.000150155,0.000165103,0.000168812,0.00015359,0.000128489,0.000111112,0.000105694,0.000102729,9.92e-05,0.00010033,9.96e-05,8.79e-05,7.82e-05,8.67e-05,0.00010055,0.000100061,9.04e-05,8.56e-05,9.11e-05,0.000108731,0.000128706,0.000134895,0.000132064,0.000133468,0.000129067,0.000106478,8.25e-05,7.29e-05,6.87e-05,6.25e-05,6.29e-05,7.9e-05,0.000105939,0.000131897,0.000148695,0.000153036,0.000145086,0.000123928,9.03e-05,5.29e-05,2.34e-05,7.17e-06,2.19e-06,8.87e-06,3.22e-05,7.13e-05,0.000116155,0.000150699,0.000161487,0.000150961,0.000129593,0.000105079,8.8e-05,8.15e-05,7.77e-05,7.7e-05,8.51e-05,9.59e-05,0.000102999,0.00010827,0.000106834,9.65e-05,8.75e-05,8.18e-05,7.6e-05,7.43e-05,7.9e-05,8.07e-05,7.45e-05,7.28e-05,7.92e-05,8.5e-05,9.14e-05,9.87e-05,9.73e-05,9.19e-05,9.6e-05,0.000104749,0.000110212,0.000118934,0.000130241,0.000127728,0.000113201,0.000108811,0.000114,0.000111506,0.000103262,9.82e-05,9.43e-05,9.62e-05,0.000109471,0.000119807,0.000118298,0.000112744,0.000103434,9.11e-05,8.62e-05,9e-05,8.87e-05,7.55e-05,6.54e-05,6.86e-05,7.5e-05,7.52e-05,7.03e-05,6.59e-05,6.53e-05,6.68e-05,6.86e-05,7.64e-05,9.93e-05,0.000128771,0.00014746,0.000154683,0.000156926,0.00014917,0.00012473,9.13e-05,6.02e-05,3.78e-05,3.04e-05,3.43e-05,4.1e-05,5.48e-05,7.53e-05,8.62e-05,7.94e-05,6.78e-05,6.31e-05,5.95e-05,5.03e-05,4.72e-05,5.88e-05,7.63e-05,9.15e-05,0.000106625,0.000117917,0.000117453,0.000109925,0.000102615,9.36e-05,8.13e-05,6.58e-05,4.94e-05,4.55e-05,6.47e-05,9.08e-05,9.98e-05,9.23e-05,8.26e-05,7.42e-05,6.34e-05,5.31e-05,4.9e-05,4.87e-05,4.81e-05,4.8e-05,5.14e-05,6.03e-05,6.92e-05,6.87e-05,6.16e-05,6.05e-05,6.91e-05,8.01e-05,8.52e-05,7.8e-05,5.95e-05,4.12e-05,3.2e-05,2.97e-05,3.23e-05,4.11e-05,5.26e-05,6.28e-05,7.39e-05,8.65e-05,9.74e-05,0.000102278,9.67e-05,8.33e-05,7.14e-05,6.55e-05,6.07e-05,5e-05,3.43e-05,2.03e-05,1.52e-05,2.41e-05,4.32e-05,6.34e-05,7.79e-05,8.33e-05,8.29e-05,8.24e-05,8.01e-05,6.71e-05,4.46e-05,2.91e-05,3.03e-05,4.05e-05,4.72e-05,4.61e-05,4.19e-05,4.25e-05,5.05e-05,5.76e-05,5.86e-05,5.75e-05,5.39e-05,4.71e-05,4.65e-05,5.77e-05,7.03e-05,7.06e-05,5.93e-05,5e-05,5.03e-05,5.53e-05,5.67e-05,5.06e-05,4.13e-05,3.76e-05,3.91e-05,4.09e-05,4.65e-05,5.74e-05,6.49e-05,6.6e-05,6.23e-05,5.22e-05,3.89e-05,2.97e-05,2.73e-05,2.92e-05,3.2e-05,3.41e-05,3.53e-05,3.81e-05,4.42e-05,4.85e-05,4.49e-05,3.54e-05,2.59e-05,1.89e-05,1.66e-05,2.05e-05,2.65e-05,3.08e-05,3.56e-05,4.46e-05,5.62e-05,6.4e-05,6.41e-05,5.93e-05,5.7e-05,5.97e-05,6.12e-05,5.7e-05,4.72e-05,3.41e-05,2.14e-05,1.05e-05,-3.1e-07,-8.91e-06,-1.18e-05,-1.06e-05,-5.9e-06,6.13e-06,2.34e-05,3.25e-05,2.81e-05,2.48e-05,3.45e-05,4.87e-05,5.45e-05,5.19e-05,4.7e-05,4.37e-05,4.12e-05,3.47e-05,2.18e-05,6.2e-06,-5.67e-06,-1.31e-05,-1.43e-05,-1.03e-06,2.11e-05,3.14e-05,2.52e-05,1.64e-05,1.24e-05,9.5e-06,5.46e-06,2.6e-06,3.51e-06,9.81e-06,2.09e-05,3.32e-05,4e-05,4.1e-05,4.09e-05,3.59e-05,2.49e-05,1.64e-05,1.52e-05,2.16e-05,3.37e-05,4.52e-05,5.2e-05,5.42e-05,4.88e-05,3.48e-05,1.72e-05,1.21e-06,-9.42e-06,-1.46e-05,-1.49e-05,-5.7e-06,1.27e-05,3.11e-05,4.15e-05,4.01e-05,3.14e-05,2.39e-05,1.7e-05,7.93e-06,1.38e-06,-2.19e-06,-6.96e-06,-1.07e-05,-1.02e-05,-6.75e-06,-3.45e-06,-2.15e-06,-2.13e-06,-2.49e-06,-3.25e-06,-3.94e-06,-5.64e-06,-9.41e-06,-1.11e-05,-9.61e-06,-8.77e-06,-7.46e-06,-5.23e-06,-5.28e-06,-5.88e-06,-3.8e-06,-1.79e-06,-4.39e-06,-9.79e-06,-1.49e-05,-2.11e-05,-2.83e-05,-3.39e-05,-3.84e-05,-4.49e-05,-5.18e-05,-5.47e-05,-5.14e-05,-4.1e-05,-2.68e-05,-1.49e-05,-1.01e-05,-1.18e-05,-1.57e-05,-2.22e-05,-3.04e-05,-3.56e-05,-3.78e-05,-3.97e-05,-4.03e-05,-3.9e-05,-3.73e-05,-3.58e-05,-3.52e-05,-3.72e-05,-4.15e-05,-4.57e-05,-4.74e-05,-4.65e-05,-4.52e-05,-4.41e-05,-4.23e-05,-4.11e-05,-4.36e-05,-4.96e-05,-5.52e-05,-5.88e-05,-6.01e-05,-5.8e-05,-5.27e-05,-4.8e-05,-4.7e-05,-4.83e-05,-4.92e-05,-5.02e-05,-5.13e-05,-5.27e-05,-5.61e-05,-6.04e-05,-6.29e-05,-6.32e-05,-6.24e-05,-6.15e-05,-6.23e-05,-6.49e-05,-6.63e-05,-6.49e-05,-6.22e-05,-5.99e-05,-5.87e-05,-5.87e-05,-5.98e-05,-6.07e-05,-6.12e-05,-6.15e-05,-6.04e-05,-5.96e-05,-6.07e-05,-6.13e-05,-6.17e-05,-6.44e-05,-6.81e-05,-7.01e-05,-7.21e-05,-7.6e-05,-7.97e-05,-8.14e-05,-8.3e-05,-8.61e-05,-8.74e-05,-8.49e-05,-8.19e-05,-7.86e-05,-7.4e-05,-6.94e-05,-6.75e-05,-6.94e-05,-7.33e-05,-7.61e-05,-7.6e-05,-7.44e-05,-7.43e-05,-7.56e-05,-7.52e-05,-7.21e-05,-6.92e-05,-6.78e-05,-6.72e-05,-6.67e-05,-6.58e-05,-6.48e-05,-6.44e-05,-6.62e-05,-7.1e-05,-7.71e-05,-8.22e-05,-8.34e-05,-7.87e-05,-7.06e-05,-6.32e-05,-5.8e-05,-5.43e-05,-5.14e-05,-5.13e-05,-5.65e-05,-6.7e-05,-7.87e-05,-8.54e-05,-8.51e-05,-8.07e-05,-7.76e-05,-7.57e-05,-7.13e-05,-6.45e-05,-6.08e-05,-6.42e-05,-7.25e-05,-8.22e-05,-9.03e-05,-9.39e-05,-9.37e-05,-9.04e-05,-8.48e-05,-7.87e-05,-7.1e-05,-6.15e-05,-5e-05,-3.82e-05,-3.23e-05,-3.41e-05,-3.65e-05,-3.39e-05,-2.82e-05,-2.13e-05,-1.33e-05,-5.8e-06,3.01e-06,1.52e-05,3.19e-05,5.44e-05,7.72e-05,9.74e-05,0.000117158,0.000132459,0.000142486,0.000152311,0.000162241,0.000171268,0.00017771,0.000177208,0.000172255,0.000169881,0.000168696,0.00016437,0.000154932,0.000140834,0.000128492,0.000118551,0.00010702,9.74e-05,8.96e-05,7.91e-05,6.61e-05,5.24e-05,4.06e-05,3.2e-05,2.25e-05,8.85e-06,-7.54e-06,-2.36e-05,-3.75e-05,-5.08e-05,-6.36e-05,-7.4e-05,-8.36e-05,-9.31e-05,-9.9e-05,-9.99e-05,-9.91e-05,-0.000101863,-0.000110802,-0.000123689,-0.000136234,-0.000146345,-0.000154064,-0.000161584,-0.000170684,-0.000180052,-0.000189702,-0.000200501,-0.000209766,-0.000215762,-0.000221099,-0.000228102,-0.00023539,-0.000240099,-0.000242167,-0.00024428,-0.000248286,-0.000253766,-0.000259867,-0.000265746,-0.000270577,-0.000275051,-0.000279791,-0.000283361,-0.000284753,-0.000284736,-0.00028334,-0.000280506,-0.000277351,-0.000274765,-0.000273175,-0.000272814,-0.000273486,-0.000274426,-0.000274741,-0.000274868,-0.000275835,-0.000276681,-0.000275357,-0.000272442,-0.000270083,-0.000268208,-0.00026542,-0.000261147,-0.000255999,-0.000250613,-0.000245097,-0.000240174,-0.000237302,-0.000237648,-0.000240087,-0.000241586,-0.000240886,-0.000239404,-0.000239319,-0.000241182,-0.000243346,-0.000244259,-0.000244898,-0.0002467,-0.000248477,-0.000248461,-0.000246838,-0.000244999,-0.00024344,-0.000241342,-0.000239061,-0.00023822,-0.00023908,-0.00024039,-0.000241281,-0.00024213,-0.000243398,-0.000244627,-0.00024495,-0.000244923,-0.000245465,-0.000246344,-0.000247414,-0.000248228,-0.000248071,-0.00024756,-0.000247676,-0.000248355,-0.000249195,-0.000249756,-0.000248633,-0.00024519,-0.000241226,-0.000238636,-0.000237686,-0.00023803,-0.000238944,-0.000238986,-0.00023743,-0.000234949,-0.000232826,-0.000232179,-0.000232242,-0.000231526,-0.000230629,-0.000230414,-0.000230207,-0.000229325,-0.00022735,-0.000223915,-0.000218867,-0.000212341,-0.000205739,-0.000200363,-0.000195486,-0.000190317,-0.000185006,-0.000179565,-0.000174891,-0.000171651,-0.000168975,-0.000166901,-0.000166136,-0.000166095,-0.000166691,-0.000168272,-0.000169613,-0.00016971,-0.000169542,-0.000170487,-0.000172808,-0.000175897,-0.00017907,-0.000181916,-0.000184083,-0.000185814,-0.000188118,-0.000191939,-0.000197656,-0.000204445,-0.000210653,-0.000215423,-0.000219429,-0.000222977,-0.00022457,-0.000222867,-0.000218537,-0.000213097,-0.000207804,-0.000203948,-0.000202713,-0.000204835,-0.000210021,-0.000216666,-0.000223228,-0.000229068,-0.000234105,-0.000238387,-0.000241015,-0.000240677,-0.00023873,-0.000237699,-0.000237608,-0.000238093,-0.000239419,-0.000241454,-0.000245256,-0.000250894,-0.000254753,-0.000254065,-0.000250848,-0.000248584,-0.000246758,-0.000243954,-0.000241346,-0.000241472,-0.000245257,-0.000246597,-0.000238701,-0.000223835,-0.000210639,-0.000201816,-0.000191776,-0.000178713,-0.000161569,-0.000138871,-0.000119957,-0.000113969,-0.000110821,-8.97e-05,-4.34e-05,2e-05,9.56e-05,0.000179696,0.000268575,0.000366899,0.000478347,0.000593484,0.000702253,0.000801834,0.000882603,0.000936095,0.000970348,0.000990896,0.000984861,0.000939144,0.000859804,0.000763128,0.00065554,0.000536906,0.000412638,0.000290195,0.00017623,7.51e-05,-1.72e-05,-0.000107189,-0.000192365,-0.000265357,-0.000326262,-0.000380849,-0.000431117,-0.000473554,-0.000505921,-0.000529981,-0.000547011,-0.00055643,-0.000559754,-0.000560529,-0.000560483,-0.00055996,-0.000559114,-0.000557717,-0.000556097,-0.000554015,-0.000549182,-0.000539674,-0.000525692,-0.000508239,-0.00048726,-0.0004621,-0.000433389,-0.000403068,-0.000372735,-0.000343284,-0.000315653,-0.000290852,-0.000269685,-0.000252137,-0.000237846,-0.000227246,-0.000221356,-0.000220568,-0.000224163,-0.000230841,-0.000239383,-0.000249191,-0.000259985,-0.000271282,-0.000282994,-0.000295306,-0.000307697,-0.00031904,-0.000328878,-0.000337722,-0.000345997,-0.000353149,-0.000358057,-0.000359882,-0.000358701,-0.000356095,-0.000354187,-0.000354017,-0.000356299,-0.00036314,-0.000376162,-0.000395194,-0.0004199,-0.000450165,-0.000485057,-0.000522379,-0.000558902,-0.000591654,-0.000618889,-0.000639142,-0.000650729,-0.000652946,-0.000646684,-0.000632976,-0.000612278,-0.000585395,-0.000553598,-0.000518569,-0.000482769,-0.000447761,-0.000413182,-0.000378802,-0.000344878,-0.00031073,-0.000274872,-0.000235771,-0.000191583,-0.000140027,-8e-05,-1.17e-05,6.5e-05,0.000148043,0.000231356,0.000307535,0.000369256,0.000407326,0.000412194,0.000378774,0.000308721,0.000212659,0.000109511,1.72e-05,-5.52e-05,-0.000105365,-0.000133067,-0.000141412,-0.000137007,-0.000126345,-0.000114004,-0.000104503,-0.000104515,-0.000121897,-0.000158348,-0.000207319,-0.000259483,-0.000308511,-0.00035075,-0.00037949,-0.000384846,-0.000360505,-0.000306284,-0.000226755,-0.00013094,-3.28e-05,5.25e-05,0.000115901,0.000159641,0.000193581,0.000226241,0.000262496,0.000305055,0.000354456,0.00040842,0.000462923,0.000512978,0.000552601,0.000576491,0.000581904,0.000571152,0.000551727,0.000531169,0.000513648,0.000500356,0.000490939,0.000482633,0.000471088,0.000450896
"4",4,89,5,0.0068,109,123,2,215,105,0,0,0,"L","PACIFIC COD",2,"LPW202001202_4_OA2","PACIFIC_COD_LPW202001202_4_OA2.0","NIR_LPW202001202_otoliths_rescan_1","","/Users/zachstamplis/Desktop/Thesis and Otoliths/Github/LPW_FT-NIRS/FT-NIRS_spectra/LPW_scans/PACIFIC_COD_LPW202001202_4_OA2.0",0.000160951,0.000136486,0.000106382,8.13e-05,6.81e-05,6.41e-05,5.85e-05,5.88e-05,7.76e-05,0.000113697,0.000157599,0.000194847,0.000207142,0.00018469,0.00014383,0.000109978,8.83e-05,6.99e-05,6e-05,6.59e-05,7.57e-05,8.19e-05,9.2e-05,0.000110791,0.000122336,0.000111126,9.59e-05,9.62e-05,0.000105088,0.000114095,0.00011965,0.000119703,0.000116158,0.000107741,8.71e-05,5.71e-05,3.86e-05,4.58e-05,6.04e-05,5.99e-05,5.61e-05,6.8e-05,8.93e-05,0.000108006,0.000124203,0.000135783,0.000136585,0.000130655,0.000128256,0.000136027,0.000150418,0.000160006,0.000151226,0.000119614,8.64e-05,7.26e-05,7.36e-05,7.71e-05,7.75e-05,7.69e-05,7.85e-05,8.11e-05,8.53e-05,9.32e-05,0.00010099,0.000100117,9.41e-05,9.68e-05,0.000111048,0.000129756,0.000138991,0.000129827,0.000113447,9.93e-05,8.85e-05,8.67e-05,8.93e-05,8.71e-05,8.16e-05,7.39e-05,6.7e-05,6.87e-05,8.13e-05,9.88e-05,0.000108263,0.000101909,9.1e-05,8.67e-05,8.27e-05,8.01e-05,8.69e-05,9.38e-05,9.39e-05,9.46e-05,0.000100497,0.000111802,0.00013014,0.000146369,0.000137299,0.000100495,6.21e-05,3.94e-05,3.32e-05,3.9e-05,4.67e-05,4.85e-05,5.15e-05,6.53e-05,8.42e-05,0.000100788,0.000116112,0.000124577,0.000114168,9.64e-05,9.9e-05,0.0001227,0.000144199,0.000146376,0.000126578,9.89e-05,8.15e-05,7.43e-05,6.79e-05,6.68e-05,7.71e-05,9.02e-05,9.84e-05,0.000105841,0.000116958,0.000118668,9.72e-05,6.42e-05,4.14e-05,4.03e-05,5.74e-05,7.89e-05,9.68e-05,0.000111234,0.00011998,0.000120893,0.000115737,0.000107393,0.000101079,0.00010181,0.000103475,9.88e-05,9.12e-05,8.66e-05,8.83e-05,9.27e-05,9.36e-05,9.15e-05,8.67e-05,8.05e-05,7.83e-05,8.02e-05,7.98e-05,7.46e-05,6.54e-05,5.4e-05,4.93e-05,5.91e-05,8.16e-05,0.000107191,0.000123828,0.000126916,0.000117994,0.00010125,8.44e-05,7.19e-05,6.46e-05,6.15e-05,5.8e-05,5.18e-05,4.71e-05,4.6e-05,4.11e-05,2.82e-05,1.09e-05,-4.11e-07,6.7e-06,3.39e-05,7.65e-05,0.000124877,0.000158668,0.000165041,0.000147122,0.000116068,8.45e-05,5.59e-05,2.94e-05,1.52e-05,2.27e-05,4.71e-05,7.63e-05,9.66e-05,9.88e-05,8.27e-05,5.42e-05,2.53e-05,9.4e-06,8.84e-06,1.88e-05,3.65e-05,5.7e-05,7.32e-05,8.11e-05,7.94e-05,6.93e-05,5.34e-05,3.95e-05,3.93e-05,5.43e-05,7.21e-05,8.18e-05,8.15e-05,7.81e-05,8.14e-05,8.95e-05,8.92e-05,7.56e-05,5.89e-05,4.73e-05,4.05e-05,4.08e-05,4.75e-05,4.93e-05,3.77e-05,2.4e-05,2.35e-05,3.27e-05,4.19e-05,4.72e-05,4.7e-05,4.84e-05,5.92e-05,7.42e-05,8.64e-05,9.49e-05,9.64e-05,8.9e-05,7.77e-05,7.09e-05,7.09e-05,6.88e-05,6.16e-05,5.68e-05,5.46e-05,5.05e-05,4.5e-05,3.79e-05,3.04e-05,2.48e-05,2.01e-05,1.89e-05,2.49e-05,3.64e-05,4.84e-05,5.65e-05,6.01e-05,6.18e-05,5.98e-05,5.22e-05,4.15e-05,2.76e-05,1.35e-05,9.95e-06,2.01e-05,3.6e-05,5.03e-05,5.83e-05,5.94e-05,5.61e-05,4.93e-05,4.01e-05,2.71e-05,1.03e-05,-1.71e-06,-4.68e-07,1.33e-05,3.24e-05,4.78e-05,5.39e-05,5.26e-05,4.75e-05,4.11e-05,3.9e-05,4.36e-05,5.01e-05,5.23e-05,4.76e-05,4.04e-05,3.51e-05,2.99e-05,2.22e-05,1.11e-05,-5.53e-07,-7.55e-06,-7.99e-06,-1.58e-06,9.91e-06,2.04e-05,2.51e-05,2.47e-05,2.49e-05,2.93e-05,3.44e-05,3.76e-05,3.94e-05,3.77e-05,3.23e-05,2.8e-05,2.39e-05,1.68e-05,1.14e-05,1.2e-05,1.62e-05,1.91e-05,1.87e-05,1.57e-05,1.03e-05,4.73e-06,2.33e-06,3.66e-06,6.91e-06,1.01e-05,1.17e-05,1.41e-05,2.11e-05,3.06e-05,3.42e-05,2.94e-05,2.46e-05,2.47e-05,2.44e-05,2.12e-05,1.74e-05,1.55e-05,1.62e-05,1.69e-05,1.75e-05,2.22e-05,2.95e-05,3.12e-05,2.38e-05,1.06e-05,4.25e-08,-3.23e-06,-2.33e-06,2.78e-06,1.3e-05,2.55e-05,3.73e-05,4.48e-05,4.53e-05,4.06e-05,3.08e-05,1.24e-05,-8.16e-06,-1.79e-05,-1.49e-05,-6.74e-06,-1.01e-06,5.63e-07,-1.27e-09,-9.44e-08,1.2e-06,2.23e-06,3.63e-06,6.17e-06,5.71e-06,-2.02e-06,-1.25e-05,-1.74e-05,-1.8e-05,-1.99e-05,-2.33e-05,-2.48e-05,-2.17e-05,-1.45e-05,-7.53e-06,-5.09e-06,-5.19e-06,-7.82e-06,-1.75e-05,-3.17e-05,-4.2e-05,-4.34e-05,-3.75e-05,-3.08e-05,-2.85e-05,-2.89e-05,-2.71e-05,-2.43e-05,-2.44e-05,-2.68e-05,-2.78e-05,-2.85e-05,-3.17e-05,-3.52e-05,-3.76e-05,-4.04e-05,-4.24e-05,-4.27e-05,-4.34e-05,-4.36e-05,-4.03e-05,-3.76e-05,-3.85e-05,-3.85e-05,-3.65e-05,-3.72e-05,-4.11e-05,-4.49e-05,-4.67e-05,-4.56e-05,-4.19e-05,-3.91e-05,-4.15e-05,-4.72e-05,-5.2e-05,-5.54e-05,-5.7e-05,-5.62e-05,-5.57e-05,-5.73e-05,-5.8e-05,-5.72e-05,-5.78e-05,-6.08e-05,-6.57e-05,-7.05e-05,-7.19e-05,-6.96e-05,-6.57e-05,-6.29e-05,-6.2e-05,-6.21e-05,-6.19e-05,-6.01e-05,-5.82e-05,-5.75e-05,-5.62e-05,-5.41e-05,-5.23e-05,-5.09e-05,-5.07e-05,-5.31e-05,-5.71e-05,-6.2e-05,-6.78e-05,-7.15e-05,-7.01e-05,-6.6e-05,-6.38e-05,-6.33e-05,-6.34e-05,-6.69e-05,-7.33e-05,-7.71e-05,-7.69e-05,-7.61e-05,-7.67e-05,-7.97e-05,-8.6e-05,-9.15e-05,-9.24e-05,-9.09e-05,-8.93e-05,-8.69e-05,-8.26e-05,-7.73e-05,-7.12e-05,-6.5e-05,-6.19e-05,-6.33e-05,-6.77e-05,-7.31e-05,-7.72e-05,-7.73e-05,-7.29e-05,-6.75e-05,-6.45e-05,-6.32e-05,-6.31e-05,-6.48e-05,-6.83e-05,-7.39e-05,-8.06e-05,-8.6e-05,-8.83e-05,-8.74e-05,-8.34e-05,-7.74e-05,-7.15e-05,-6.79e-05,-6.58e-05,-6.36e-05,-6.22e-05,-6.46e-05,-7.04e-05,-7.67e-05,-8.1e-05,-8.19e-05,-8.06e-05,-7.77e-05,-7.16e-05,-6.41e-05,-5.98e-05,-6.12e-05,-6.66e-05,-7.26e-05,-7.64e-05,-7.99e-05,-8.65e-05,-9.46e-05,-0.000102173,-0.00010627,-0.000102597,-9.16e-05,-7.55e-05,-5.88e-05,-4.91e-05,-4.82e-05,-4.87e-05,-4.34e-05,-3.41e-05,-2.53e-05,-1.88e-05,-1.33e-05,-3.86e-06,1.19e-05,3.25e-05,5.48e-05,7.23e-05,8.42e-05,9.47e-05,0.00010414,0.000115646,0.000131534,0.000144853,0.000152305,0.000157554,0.000160309,0.000160703,0.000161823,0.000161451,0.000157663,0.000151287,0.000142188,0.000132509,0.000121174,0.000106428,9.2e-05,7.79e-05,6.32e-05,5.06e-05,3.87e-05,2.54e-05,1.41e-05,5.52e-06,-2.59e-06,-1.13e-05,-2.08e-05,-3.11e-05,-4.35e-05,-5.72e-05,-6.94e-05,-7.95e-05,-8.85e-05,-9.65e-05,-0.000103326,-0.000109584,-0.000115277,-0.000121205,-0.000128222,-0.000135702,-0.000143599,-0.000153217,-0.000164894,-0.000176466,-0.000185311,-0.000191881,-0.00019863,-0.000206425,-0.000214231,-0.000220964,-0.000225793,-0.000229274,-0.000233827,-0.000239654,-0.000245616,-0.000251992,-0.000257286,-0.000260136,-0.000261832,-0.000262809,-0.000262964,-0.000264143,-0.00026797,-0.000272582,-0.000275059,-0.000276686,-0.000280511,-0.000284238,-0.000284303,-0.000283355,-0.000283714,-0.000283017,-0.000280225,-0.000276056,-0.000271071,-0.000266774,-0.000263908,-0.000260872,-0.000257566,-0.000257048,-0.000259965,-0.000262589,-0.000262665,-0.00026179,-0.000260484,-0.000257071,-0.000251835,-0.000246707,-0.000242852,-0.000240317,-0.000238546,-0.000237525,-0.000237419,-0.000237728,-0.000237738,-0.00023674,-0.000234628,-0.000233216,-0.000234538,-0.0002379,-0.00024044,-0.000240778,-0.000240034,-0.000239082,-0.000238225,-0.000238188,-0.000238919,-0.000239226,-0.000239101,-0.000239929,-0.000242535,-0.000247101,-0.000252572,-0.000255893,-0.00025483,-0.000250706,-0.000246292,-0.000242389,-0.000239155,-0.000237437,-0.000236885,-0.000237298,-0.00024062,-0.000247876,-0.000256536,-0.000261662,-0.000259902,-0.000253164,-0.000245635,-0.000239192,-0.000234201,-0.000230333,-0.000227487,-0.000226903,-0.000228637,-0.000231685,-0.000236183,-0.000240944,-0.00024295,-0.000240606,-0.000235283,-0.000230094,-0.000226034,-0.00022153,-0.000216577,-0.000212431,-0.000209022,-0.000206456,-0.000205223,-0.000204138,-0.000201559,-0.000196864,-0.000190316,-0.000183205,-0.000176464,-0.0001708,-0.000167257,-0.000166091,-0.000166783,-0.000168399,-0.00017003,-0.000171572,-0.000173384,-0.00017504,-0.000175616,-0.000176236,-0.00017868,-0.000182045,-0.000184702,-0.000186504,-0.000188374,-0.000191462,-0.00019575,-0.000200329,-0.000204906,-0.000209876,-0.000215161,-0.00021986,-0.000223021,-0.000224174,-0.000223172,-0.00022013,-0.000215866,-0.000211871,-0.000209376,-0.000208943,-0.000210461,-0.000213562,-0.000218472,-0.000225282,-0.000232463,-0.000237979,-0.000241499,-0.000243234,-0.000242315,-0.000239364,-0.000236565,-0.000234777,-0.00023467,-0.000236135,-0.000238104,-0.000241993,-0.00024898,-0.000255353,-0.000257137,-0.000255647,-0.000254377,-0.000252899,-0.000249902,-0.000246548,-0.000245212,-0.000247594,-0.000248521,-0.000240372,-0.000224753,-0.000211319,-0.000203405,-0.000195385,-0.000185151,-0.000171156,-0.000151488,-0.000134944,-0.000130456,-0.000128325,-0.00010834,-6.44e-05,-5.45e-06,6.48e-05,0.000144215,0.000228629,0.000321871,0.00042762,0.000536587,0.000639908,0.000736519,0.000817493,0.000873597,0.00091205,0.000938117,0.000938706,0.000900303,0.000827841,0.000736536,0.000632961,0.000517335,0.000395322,0.000275527,0.000165675,6.96e-05,-1.79e-05,-0.000104075,-0.000186081,-0.000256215,-0.000314982,-0.00036845,-0.000418322,-0.000460963,-0.000493766,-0.000518312,-0.000536361,-0.000547079,-0.000551183,-0.000552861,-0.000554656,-0.000555811,-0.000555294,-0.000552782,-0.000548934,-0.000544677,-0.00053936,-0.000531692,-0.000520993,-0.00050663,-0.000487486,-0.000463101,-0.000434541,-0.000403871,-0.0003729,-0.000341923,-0.000311488,-0.000283945,-0.000261438,-0.000244361,-0.000231967,-0.000223086,-0.000217324,-0.000215151,-0.00021636,-0.000220318,-0.000227068,-0.000236623,-0.00024811,-0.000260267,-0.000272309,-0.00028445,-0.000296697,-0.000308033,-0.000317922,-0.000326747,-0.000334895,-0.000342273,-0.000348141,-0.000351525,-0.00035219,-0.000350882,-0.000348813,-0.000347493,-0.000348541,-0.000353907,-0.000365637,-0.000384491,-0.000409698,-0.000440173,-0.000474727,-0.000511585,-0.000548373,-0.000582282,-0.000610571,-0.000631291,-0.000643944,-0.000648814,-0.00064516,-0.000631963,-0.000610068,-0.000581391,-0.000547807,-0.000511715,-0.000476102,-0.000442971,-0.000411704,-0.000380466,-0.000348481,-0.000315659,-0.000281063,-0.000242673,-0.000197924,-0.000144845,-8.37e-05,-1.59e-05,5.78e-05,0.000135258,0.000212314,0.000283685,0.00034283,0.000380142,0.000384638,0.00035082,0.000281533,0.00018752,8.63e-05,-4.84e-06,-7.65e-05,-0.00012555,-0.000152134,-0.000159117,-0.000152228,-0.000138131,-0.000122647,-0.000111495,-0.00011191,-0.000130313,-0.00016656,-0.000214596,-0.00026628,-0.000314946,-0.000355915,-0.000382636,-0.000386533,-0.000362392,-0.000310488,-0.000235188,-0.000144997,-5.32e-05,2.66e-05,8.67e-05,0.000129255,0.000163105,0.000195785,0.000232555,0.000276202,0.000326139,0.000379157,0.000431572,0.000479489,0.000516809,0.000538051,0.000542848,0.000535705,0.00052285,0.000509091,0.00049578,0.000482701,0.000472653,0.000464322,0.000448919,0.000421862
"5",5,108,10,0.0096,NA,123,NA,215,NA,0,0,0,"L","PACIFIC COD",2,"LPW202001202_5_OA2","PACIFIC_COD_LPW202001202_5_OA2.0","NIR_LPW202001202_otoliths_rescan_1","","/Users/zachstamplis/Desktop/Thesis and Otoliths/Github/LPW_FT-NIRS/FT-NIRS_spectra/LPW_scans/PACIFIC_COD_LPW202001202_5_OA2.0",0.000247213,0.000195407,0.000142861,9.64e-05,6.44e-05,5.22e-05,5.86e-05,8.02e-05,0.000109884,0.000137513,0.000151576,0.000147677,0.000129603,0.000100644,6.98e-05,5.67e-05,6.77e-05,8.68e-05,0.000103219,0.000115015,0.000122838,0.000130714,0.000139382,0.000145967,0.000144876,0.000141512,0.000147807,0.000154826,0.000150872,0.000145484,0.000145913,0.000143679,0.000141922,0.000147284,0.000142303,0.000114144,7.55e-05,4.52e-05,2.94e-05,2.53e-05,3.24e-05,4.83e-05,7.32e-05,0.000108597,0.000144544,0.000167978,0.000172582,0.000160915,0.000141955,0.000125547,0.000121035,0.000129078,0.000138815,0.000141094,0.000135514,0.000126062,0.000114199,9.82e-05,7.93e-05,6.36e-05,5.6e-05,5.83e-05,7.15e-05,8.85e-05,0.000102332,0.000121712,0.000150125,0.000167608,0.000159962,0.000134575,0.000103463,7.34e-05,4.91e-05,3.65e-05,3.56e-05,4.26e-05,5.85e-05,8.63e-05,0.000122027,0.000150352,0.000158131,0.000144444,0.000119832,0.00010021,9.21e-05,9.56e-05,0.000107306,0.000117524,0.000119311,0.000114005,0.000112649,0.000119384,0.000119416,0.000108775,0.000104028,0.000111726,0.000121703,0.000130189,0.00013761,0.000136987,0.000125318,0.000105404,8.4e-05,7.39e-05,7.79e-05,8.44e-05,8.67e-05,9.15e-05,0.000106479,0.000125208,0.000135929,0.00014086,0.000141173,0.000131047,0.000117361,0.000110373,0.000106666,9.97e-05,9.37e-05,9.13e-05,8.92e-05,9.16e-05,0.000103358,0.000120585,0.000135858,0.00014428,0.000148063,0.000150481,0.000150472,0.00014106,0.000115814,8.12e-05,5.2e-05,3.8e-05,3.57e-05,3.82e-05,4.65e-05,5.68e-05,6.37e-05,7.16e-05,8.49e-05,0.00010136,0.00011352,0.000116152,0.000114574,0.000117064,0.000125354,0.000135029,0.000141152,0.000140768,0.000134081,0.000126953,0.000120953,0.000111276,9.71e-05,8.02e-05,6.07e-05,3.93e-05,2.37e-05,2.09e-05,2.92e-05,4.53e-05,7.03e-05,0.000104971,0.000138984,0.000158743,0.000162921,0.00015565,0.000139304,0.000117117,9.28e-05,7.04e-05,5.54e-05,5.01e-05,4.94e-05,5.11e-05,5.69e-05,6.5e-05,6.98e-05,6.81e-05,6.66e-05,7.28e-05,8.09e-05,8.56e-05,9.1e-05,9.71e-05,9.75e-05,9.06e-05,8e-05,7.17e-05,7.25e-05,8.26e-05,9.31e-05,9.61e-05,9.49e-05,9.38e-05,8.68e-05,7.11e-05,5.17e-05,3.2e-05,1.7e-05,1.43e-05,2.65e-05,5.09e-05,7.89e-05,9.99e-05,0.000111502,0.000116674,0.000115596,0.000109296,9.71e-05,8.13e-05,6.86e-05,5.78e-05,4.92e-05,4.86e-05,5.38e-05,5.89e-05,6.24e-05,6.39e-05,6.74e-05,7.8e-05,9.1e-05,0.000101159,0.000108686,0.000107855,9.14e-05,6.28e-05,3.56e-05,1.9e-05,1.03e-05,6.69e-06,1.32e-05,3.25e-05,5.83e-05,8.49e-05,0.000107028,0.000115154,0.00010746,9.25e-05,7.84e-05,6.78e-05,6.34e-05,6.69e-05,7.52e-05,8.43e-05,9.16e-05,9.42e-05,9.14e-05,8.57e-05,7.99e-05,7.24e-05,6.03e-05,4.63e-05,3.5e-05,2.76e-05,2.71e-05,3.65e-05,4.91e-05,5.93e-05,7e-05,8.23e-05,9.07e-05,8.82e-05,7.51e-05,5.88e-05,4.57e-05,3.68e-05,3.37e-05,3.94e-05,5.15e-05,6.27e-05,6.41e-05,5.53e-05,4.53e-05,3.37e-05,1.78e-05,6.58e-06,9.3e-06,2.33e-05,4e-05,5.5e-05,6.65e-05,7.45e-05,8.14e-05,8.35e-05,7.55e-05,6.34e-05,5.53e-05,5.1e-05,4.73e-05,4.61e-05,4.61e-05,4.13e-05,3.29e-05,2.73e-05,2.39e-05,2.05e-05,2.12e-05,2.62e-05,2.93e-05,3.29e-05,4.47e-05,6.28e-05,8.06e-05,9.05e-05,8.45e-05,6.42e-05,4.15e-05,2.35e-05,6.52e-06,-1.03e-05,-1.85e-05,-1.38e-05,-5.01e-07,1.65e-05,3.56e-05,5.27e-05,6.13e-05,5.85e-05,4.64e-05,3.04e-05,1.87e-05,1.54e-05,1.8e-05,2.36e-05,3.17e-05,4.1e-05,4.79e-05,5.21e-05,5.72e-05,6.38e-05,6.57e-05,5.88e-05,4.83e-05,4.03e-05,3.92e-05,4.47e-05,4.94e-05,5e-05,4.97e-05,5.28e-05,5.94e-05,6.21e-05,5.58e-05,4.2e-05,2.63e-05,1.46e-05,1.18e-05,1.77e-05,2.58e-05,3.26e-05,3.79e-05,4.02e-05,3.88e-05,3.41e-05,2.46e-05,1.02e-05,1.12e-08,2.24e-06,1.17e-05,1.94e-05,2.43e-05,2.85e-05,3.12e-05,3.05e-05,2.76e-05,2.38e-05,1.95e-05,1.58e-05,1.2e-05,7.14e-06,6.75e-06,1.09e-05,1.04e-05,4.65e-06,1.15e-06,2.59e-06,6.43e-06,8.95e-06,8.3e-06,7.68e-06,1.12e-05,1.51e-05,1.31e-05,6.45e-06,1.53e-06,-9.31e-07,-6.25e-06,-1.35e-05,-1.74e-05,-1.84e-05,-1.63e-05,-1.13e-05,-9.01e-06,-1.15e-05,-1.61e-05,-2.46e-05,-3.64e-05,-4.33e-05,-4.01e-05,-3.16e-05,-2.33e-05,-1.66e-05,-1.13e-05,-8.5e-06,-8.05e-06,-8.74e-06,-1.23e-05,-1.95e-05,-2.54e-05,-2.56e-05,-2.26e-05,-2.18e-05,-2.46e-05,-2.79e-05,-2.81e-05,-2.71e-05,-2.92e-05,-3.23e-05,-3.25e-05,-3.18e-05,-3.17e-05,-3.23e-05,-3.45e-05,-3.71e-05,-3.99e-05,-4.48e-05,-5.13e-05,-5.56e-05,-5.61e-05,-5.38e-05,-5.2e-05,-5.12e-05,-4.76e-05,-4.13e-05,-3.59e-05,-3.31e-05,-3.28e-05,-3.28e-05,-3.24e-05,-3.39e-05,-3.82e-05,-4.31e-05,-4.35e-05,-3.89e-05,-3.63e-05,-3.93e-05,-4.21e-05,-4.1e-05,-3.96e-05,-4.13e-05,-4.45e-05,-4.53e-05,-4.56e-05,-4.94e-05,-5.45e-05,-5.61e-05,-5.42e-05,-5.24e-05,-5.34e-05,-5.66e-05,-5.87e-05,-5.83e-05,-5.72e-05,-5.88e-05,-6.27e-05,-6.35e-05,-5.99e-05,-5.58e-05,-5.21e-05,-4.85e-05,-4.8e-05,-5.07e-05,-5.31e-05,-5.44e-05,-5.62e-05,-5.99e-05,-6.47e-05,-6.82e-05,-6.73e-05,-6.07e-05,-5.03e-05,-4.08e-05,-3.66e-05,-3.73e-05,-3.94e-05,-3.98e-05,-4.02e-05,-4.47e-05,-5.09e-05,-5.29e-05,-4.99e-05,-4.31e-05,-3.39e-05,-2.57e-05,-2.1e-05,-2.07e-05,-2.52e-05,-3.33e-05,-4.1e-05,-4.62e-05,-5.14e-05,-5.77e-05,-6.3e-05,-6.34e-05,-5.75e-05,-4.83e-05,-4.16e-05,-4.05e-05,-4.39e-05,-4.8e-05,-4.91e-05,-4.7e-05,-4.65e-05,-4.92e-05,-5.46e-05,-5.94e-05,-5.8e-05,-4.87e-05,-3.32e-05,-1.61e-05,-3.97e-06,2.73e-06,1.04e-05,2.28e-05,3.7e-05,4.94e-05,5.74e-05,6.21e-05,6.99e-05,8.44e-05,0.000104391,0.00012665,0.000145679,0.000163209,0.000184338,0.000207276,0.000230827,0.000254607,0.000273981,0.000287671,0.000296844,0.000299269,0.000296554,0.000292851,0.000284746,0.00026984,0.000251993,0.000235411,0.000222566,0.00020827,0.000187627,0.000165176,0.000145007,0.000128779,0.000116508,0.000103132,8.73e-05,7.25e-05,5.81e-05,4.26e-05,2.71e-05,1.2e-05,-2.09e-06,-1.5e-05,-2.61e-05,-3.53e-05,-4.35e-05,-5.07e-05,-5.66e-05,-6.33e-05,-7.18e-05,-8.21e-05,-9.52e-05,-0.000110511,-0.00012474,-0.000135396,-0.000142349,-0.000148379,-0.000157579,-0.000170402,-0.00018322,-0.000192876,-0.000200937,-0.000211475,-0.000224495,-0.000236768,-0.000246217,-0.000252558,-0.000256346,-0.000258411,-0.000260077,-0.00026215,-0.000265299,-0.000269451,-0.00027268,-0.000275583,-0.00028202,-0.00029179,-0.000299243,-0.000301708,-0.000301506,-0.000300636,-0.00029965,-0.000298513,-0.000296786,-0.000294547,-0.000292677,-0.000291415,-0.000289483,-0.000287017,-0.00028577,-0.000284796,-0.000281359,-0.000276381,-0.000272965,-0.000270752,-0.000267816,-0.000263461,-0.000258011,-0.000253322,-0.000251132,-0.000251017,-0.000251741,-0.000253414,-0.000256381,-0.000259265,-0.000259782,-0.000256926,-0.000251503,-0.00024445,-0.000236887,-0.000230546,-0.000226962,-0.00022714,-0.000229644,-0.000231643,-0.000233247,-0.000235821,-0.00023856,-0.00024067,-0.000242002,-0.000241627,-0.000240263,-0.000239716,-0.000239642,-0.000239318,-0.000239305,-0.000239774,-0.000240092,-0.000240301,-0.000240581,-0.000240134,-0.000238332,-0.000235771,-0.000233722,-0.000232497,-0.000232245,-0.000233747,-0.000236234,-0.000238323,-0.000239695,-0.000240173,-0.000239568,-0.000237387,-0.000232896,-0.000226912,-0.000221706,-0.000218233,-0.000215718,-0.000213872,-0.000213147,-0.000213516,-0.000213712,-0.000212833,-0.000212126,-0.000212963,-0.000214335,-0.00021374,-0.000210332,-0.000206057,-0.000201869,-0.00019641,-0.000189399,-0.00018199,-0.000175196,-0.000169302,-0.000163454,-0.000157658,-0.000153848,-0.000151986,-0.000150025,-0.000147912,-0.000146876,-0.000147062,-0.000147468,-0.000146863,-0.000145733,-0.000145346,-0.000145934,-0.000147424,-0.000149623,-0.000152528,-0.00015597,-0.000158644,-0.000159827,-0.000160822,-0.000162789,-0.000165824,-0.000170418,-0.00017657,-0.000183471,-0.000190151,-0.000195085,-0.000197567,-0.000198115,-0.000196735,-0.00019325,-0.000188364,-0.000183697,-0.000181044,-0.000181484,-0.000185375,-0.000191945,-0.000199297,-0.000205995,-0.000211661,-0.000216505,-0.000220899,-0.000224137,-0.000224712,-0.00022316,-0.000221706,-0.000221549,-0.000222648,-0.000224018,-0.000225105,-0.000227765,-0.000233506,-0.000239252,-0.000240336,-0.000237376,-0.00023472,-0.000232109,-0.000227667,-0.000222674,-0.000219656,-0.000220365,-0.000219646,-0.000209861,-0.000193153,-0.000179447,-0.000171171,-0.000161472,-0.000147358,-0.000127554,-0.0001018,-7.9e-05,-6.62e-05,-5.18e-05,-1.46e-05,5.11e-05,0.000135487,0.000233418,0.000341022,0.000453257,0.000573615,0.000705068,0.000838225,0.000963424,0.001077709,0.001170415,0.001231848,0.001269416,0.001287406,0.001271281,0.001207799,0.001104134,0.000978653,0.000840927,0.000692502,0.000538403,0.000387143,0.000247806,0.000125327,1.47e-05,-9.14e-05,-0.000190151,-0.000273646,-0.00034278,-0.000404266,-0.000461284,-0.00051083,-0.000549501,-0.00057907,-0.000601736,-0.000615684,-0.000620827,-0.000621158,-0.000619747,-0.000617941,-0.000616143,-0.000613861,-0.000611654,-0.000610356,-0.00060839,-0.000603288,-0.000593923,-0.000580297,-0.000561986,-0.000537952,-0.000508654,-0.000476416,-0.000443081,-0.000409682,-0.000377679,-0.000348579,-0.000323628,-0.000303752,-0.000289153,-0.000279784,-0.000275867,-0.000277032,-0.000281721,-0.000288341,-0.000296473,-0.000306206,-0.00031661,-0.000326547,-0.00033639,-0.000346936,-0.000357837,-0.000368606,-0.000379422,-0.000389803,-0.000398694,-0.000405483,-0.000409714,-0.000410327,-0.000406485,-0.000399356,-0.000391684,-0.000385989,-0.000383572,-0.000385647,-0.00039461,-0.000412154,-0.000437432,-0.000468344,-0.000502929,-0.000539745,-0.000576816,-0.000610688,-0.000638058,-0.000657289,-0.000668023,-0.000670279,-0.000663891,-0.000648957,-0.00062667,-0.000598314,-0.00056441,-0.000526672,-0.000487833,-0.000449124,-0.000410998,-0.000373722,-0.000336253,-0.000297826,-0.000258499,-0.000216655,-0.000168532,-0.000110841,-4.32e-05,3.29e-05,0.000115864,0.000203201,0.000290134,0.000370241,0.000434965,0.000473652,0.000477922,0.000444904,0.000376519,0.000282468,0.000181188,9.04e-05,1.86e-05,-3.21e-05,-6.22e-05,-7.49e-05,-7.69e-05,-7.43e-05,-7.06e-05,-6.91e-05,-7.65e-05,-0.000101217,-0.000146096,-0.000206234,-0.000271544,-0.000333016,-0.00038457,-0.000417942,-0.00042231,-0.000390895,-0.000324167,-0.000227948,-0.000112022,8.41e-06,0.000115846,0.000198929,0.000258194,0.000302545,0.000341508,0.000383087,0.000431773,0.000487218,0.00054559,0.000602174,0.000651882,0.000688472,0.000706955,0.000705577,0.000687012,0.000658641,0.000627984,0.000601169,0.000584545,0.00057927,0.000575562,0.000563138,0.000539053
"6",6,128,21,0.014,139,123,2,215,78,0,0,0,"L","PACIFIC COD",2,"LPW202001202_6_OA2","PACIFIC_COD_LPW202001202_6_OA2.0","NIR_LPW202001202_otoliths_rescan_1","","/Users/zachstamplis/Desktop/Thesis and Otoliths/Github/LPW_FT-NIRS/FT-NIRS_spectra/LPW_scans/PACIFIC_COD_LPW202001202_6_OA2.0",0.000200876,0.000207821,0.000198242,0.000173639,0.000147314,0.000123139,9.93e-05,8.22e-05,7.29e-05,6.94e-05,7.09e-05,8.06e-05,0.000100573,0.000119311,0.000127844,0.000128058,0.000119404,0.00010435,0.000100319,0.000111941,0.000117701,0.000110894,0.000106801,0.000116536,0.000135861,0.000150666,0.000158268,0.000161373,0.000157962,0.000153468,0.000151263,0.00014547,0.000138458,0.000132534,0.000115193,8.58e-05,6.51e-05,6.02e-05,5.87e-05,5.86e-05,7.01e-05,9.44e-05,0.000120099,0.000139792,0.000156417,0.000168893,0.00017204,0.000169521,0.000163197,0.000153691,0.000144628,0.000128909,0.000104299,8.56e-05,8.04e-05,8.26e-05,8.42e-05,8.7e-05,0.000102358,0.000129414,0.000152047,0.000165788,0.000173488,0.000169854,0.000154022,0.000131154,0.000112588,0.000105423,9.29e-05,6.47e-05,3.51e-05,1.88e-05,2.8e-05,6.25e-05,0.000100547,0.000129754,0.000152643,0.000171434,0.000186148,0.000192419,0.000187922,0.000169216,0.000126595,7.2e-05,3.85e-05,3.82e-05,5.91e-05,8.71e-05,0.00011283,0.000138818,0.000170119,0.000196244,0.000200459,0.000178612,0.000142622,0.000104936,7.24e-05,5.67e-05,6.4e-05,8.33e-05,0.000101069,0.00011206,0.000120412,0.00013419,0.000145739,0.000137141,0.000115189,0.000101407,0.000100019,0.000104997,0.000112869,0.000123219,0.000130366,0.000130743,0.000130549,0.000128444,0.000121413,0.000113069,0.000101181,8.72e-05,8.6e-05,0.00010446,0.000125553,0.000135546,0.000139129,0.000142197,0.000148254,0.000155711,0.000154738,0.000135738,0.000107053,8.84e-05,8.2e-05,8.35e-05,9.14e-05,9.58e-05,9.34e-05,8.97e-05,8.96e-05,9.67e-05,0.000106063,0.000107916,0.000101245,9.87e-05,0.000111293,0.000132433,0.000147128,0.00015384,0.000157709,0.00015182,0.000134207,0.000114738,9.76e-05,8.54e-05,8.04e-05,7.99e-05,8.34e-05,9.11e-05,9.76e-05,9.85e-05,9.52e-05,8.84e-05,8.27e-05,8.3e-05,8.79e-05,9.78e-05,0.000111645,0.000118707,0.000113754,0.000106234,0.000104157,0.000104618,0.00010212,9.77e-05,9.62e-05,9.91e-05,0.000105123,0.000109478,0.000105151,9.42e-05,8.59e-05,8.24e-05,8.36e-05,9.25e-05,0.000105196,0.00010934,1e-04,8.5e-05,7.41e-05,6.86e-05,6.34e-05,5.58e-05,5.28e-05,6.51e-05,8.85e-05,0.000109846,0.000121017,0.000119651,0.000108634,9.19e-05,7.39e-05,6.13e-05,5.99e-05,6.79e-05,7.82e-05,8.74e-05,9.72e-05,0.000109905,0.000119474,0.000113276,9.2e-05,7.14e-05,6.25e-05,6.08e-05,6.08e-05,6.25e-05,6.43e-05,6.67e-05,7.3e-05,7.87e-05,7.91e-05,8.29e-05,9.68e-05,0.00011364,0.000126822,0.000135675,0.000134219,0.000116111,8.73e-05,5.67e-05,2.85e-05,1.2e-05,1.35e-05,2.48e-05,3.98e-05,6.39e-05,9.37e-05,0.000111077,0.000107424,9.07e-05,7.2e-05,5.98e-05,5.88e-05,6.83e-05,8.5e-05,0.000104156,0.000117614,0.00011894,0.000113579,0.000106969,9.32e-05,7.12e-05,5.1e-05,3.96e-05,3.67e-05,3.84e-05,4.41e-05,5.57e-05,6.75e-05,7.25e-05,7.48e-05,7.93e-05,8.16e-05,7.76e-05,6.97e-05,6.51e-05,6.84e-05,7.39e-05,7.57e-05,7.72e-05,8.11e-05,8.65e-05,8.89e-05,8.37e-05,7.43e-05,6.2e-05,4.44e-05,2.86e-05,2.57e-05,3.48e-05,4.65e-05,5.55e-05,6.15e-05,6.62e-05,6.97e-05,6.89e-05,6.4e-05,5.72e-05,4.96e-05,4.46e-05,4.84e-05,6.33e-05,8.18e-05,9.38e-05,9.29e-05,8.08e-05,6.82e-05,6.11e-05,5.3e-05,3.98e-05,2.97e-05,3.24e-05,4.7e-05,6.5e-05,7.99e-05,8.79e-05,8.36e-05,6.83e-05,5.28e-05,4.47e-05,4.37e-05,4.41e-05,3.92e-05,3.34e-05,3.82e-05,5.22e-05,6.41e-05,6.85e-05,6.57e-05,5.63e-05,4.23e-05,2.69e-05,1.38e-05,6.72e-06,5.8e-06,9.33e-06,1.75e-05,3.3e-05,5.58e-05,7.97e-05,9.73e-05,0.000105969,0.000106494,9.85e-05,8.47e-05,7.18e-05,6.41e-05,6.26e-05,6.63e-05,7.19e-05,7.62e-05,7.95e-05,8.05e-05,7.44e-05,6.3e-05,5.35e-05,5e-05,4.98e-05,4.94e-05,5.04e-05,5.55e-05,6.51e-05,7.44e-05,7.77e-05,7.44e-05,6.6e-05,5.28e-05,3.6e-05,2.25e-05,1.87e-05,2.15e-05,2.5e-05,2.72e-05,3.03e-05,3.62e-05,4.39e-05,5.01e-05,5.16e-05,5.01e-05,4.66e-05,3.96e-05,2.94e-05,2e-05,1.57e-05,1.72e-05,2.2e-05,2.62e-05,2.78e-05,2.95e-05,3.24e-05,3.36e-05,3.28e-05,3.01e-05,2.3e-05,1.21e-05,3.27e-06,1.06e-06,3.77e-06,6.02e-06,3.75e-06,-3.67e-06,-1.23e-05,-1.54e-05,-1.11e-05,-3.89e-06,1.47e-06,4.85e-06,6.92e-06,8.6e-06,1.15e-05,1.29e-05,8.64e-06,1.08e-07,-6.8e-06,-9.21e-06,-7.51e-06,-2.41e-06,1.62e-06,-3.74e-07,-6.59e-06,-1.27e-05,-1.79e-05,-2.16e-05,-2.29e-05,-2.31e-05,-2.33e-05,-2.24e-05,-1.98e-05,-1.79e-05,-1.93e-05,-2.25e-05,-2.6e-05,-2.91e-05,-3.02e-05,-2.81e-05,-2.36e-05,-1.74e-05,-1.2e-05,-1.24e-05,-1.72e-05,-2e-05,-1.98e-05,-2.07e-05,-2.53e-05,-2.99e-05,-3.06e-05,-3.04e-05,-3.17e-05,-2.99e-05,-2.36e-05,-1.9e-05,-2e-05,-2.4e-05,-2.71e-05,-2.78e-05,-2.73e-05,-2.78e-05,-2.77e-05,-2.47e-05,-2.12e-05,-2.15e-05,-2.37e-05,-2.41e-05,-2.4e-05,-2.85e-05,-3.64e-05,-4.05e-05,-3.92e-05,-3.66e-05,-3.35e-05,-2.96e-05,-2.82e-05,-3.32e-05,-4.23e-05,-5.04e-05,-5.4e-05,-5.38e-05,-5.23e-05,-5.04e-05,-4.67e-05,-3.84e-05,-2.79e-05,-2.08e-05,-1.76e-05,-1.64e-05,-1.74e-05,-2.13e-05,-2.56e-05,-2.84e-05,-3.04e-05,-3.1e-05,-2.86e-05,-2.48e-05,-2.03e-05,-1.45e-05,-9.51e-06,-7.45e-06,-7.26e-06,-7.34e-06,-6.66e-06,-3.68e-06,4.2e-07,3.46e-06,5.61e-06,6.19e-06,4.7e-06,1.54e-06,-3.47e-06,-9.08e-06,-1.39e-05,-1.67e-05,-1.64e-05,-1.26e-05,-5.94e-06,-4.34e-07,7.15e-07,3.15e-07,2.12e-06,2.66e-06,-3.26e-06,-1.36e-05,-2.34e-05,-2.74e-05,-2.45e-05,-2.13e-05,-2.09e-05,-2.06e-05,-1.7e-05,-1.07e-05,-3.58e-06,7.68e-06,2.49e-05,3.9e-05,4.44e-05,4.88e-05,5.99e-05,7.57e-05,9.33e-05,0.000110605,0.000128577,0.000152565,0.000183427,0.000218959,0.000258376,0.000299158,0.000340499,0.00037945,0.00041022,0.000435761,0.00046011,0.000478674,0.000489733,0.000495144,0.000493548,0.000487706,0.000483006,0.000477354,0.000467891,0.000454153,0.000435817,0.000414764,0.000389757,0.000360474,0.000331325,0.000303054,0.000275927,0.000252531,0.000230831,0.000209106,0.000189703,0.000171047,0.000148774,0.000122255,9.42e-05,6.78e-05,4.32e-05,1.96e-05,-1.05e-06,-1.69e-05,-2.76e-05,-3.43e-05,-4.01e-05,-4.75e-05,-5.62e-05,-6.71e-05,-8.08e-05,-9.49e-05,-0.000107641,-0.000121271,-0.000138909,-0.000159456,-0.000177468,-0.000190895,-0.000202747,-0.000215243,-0.000228385,-0.000241399,-0.00025413,-0.000267525,-0.000280612,-0.000290404,-0.000297089,-0.000303235,-0.000308835,-0.00031201,-0.000313184,-0.000316152,-0.000323789,-0.000334619,-0.000345411,-0.000354131,-0.000360587,-0.000364611,-0.000364304,-0.000358803,-0.000351165,-0.000345012,-0.000340524,-0.00033561,-0.000329466,-0.000324882,-0.000323693,-0.000322652,-0.000318664,-0.000313407,-0.000310206,-0.00030881,-0.000306278,-0.000301939,-0.00029678,-0.000291138,-0.000285278,-0.000279652,-0.000275157,-0.000273202,-0.000273758,-0.000274164,-0.000272316,-0.00026977,-0.000268943,-0.000268865,-0.000266586,-0.00026125,-0.000254107,-0.000246896,-0.000241218,-0.00023813,-0.000237595,-0.000238722,-0.000240927,-0.000243847,-0.000247096,-0.000249612,-0.000249433,-0.000245752,-0.000239738,-0.000234053,-0.000231446,-0.000231991,-0.000233506,-0.000234514,-0.000235421,-0.000236484,-0.000236725,-0.000235358,-0.000232873,-0.000230863,-0.000229688,-0.000228655,-0.000228529,-0.000229536,-0.000230137,-0.00022912,-0.000226357,-0.000222915,-0.000219595,-0.00021573,-0.00021101,-0.00020634,-0.000202805,-0.00020083,-0.00019955,-0.000197812,-0.000196095,-0.000195764,-0.000196026,-0.000194832,-0.000191797,-0.000187126,-0.000181007,-0.000174605,-0.000169475,-0.000166072,-0.000163021,-0.000159157,-0.000154774,-0.000149338,-0.000141486,-0.000132023,-0.00012297,-0.00011477,-0.000107323,-0.00010173,-9.95e-05,-0.0001005,-0.000103134,-0.000105539,-0.000106945,-0.000107345,-0.000106931,-0.000106051,-0.000105323,-0.000105597,-0.000106851,-0.000107382,-0.000106584,-0.000106359,-0.00010901,-0.000114999,-0.000123059,-0.000132425,-0.000142593,-0.000152009,-0.000158927,-0.000162703,-0.000163514,-0.000161382,-0.000156472,-0.000149972,-0.0001442,-0.000141112,-0.000141007,-0.000143633,-0.000148506,-0.000154259,-0.000159817,-0.00016512,-0.000170114,-0.000174711,-0.000179311,-0.000183397,-0.00018551,-0.000186367,-0.000187903,-0.000189798,-0.000190713,-0.000190536,-0.000190573,-0.000193236,-0.000199342,-0.000205543,-0.000207812,-0.000206674,-0.000205583,-0.000204192,-0.000200751,-0.000196458,-0.000194031,-0.000194381,-0.000191468,-0.000178515,-0.000158031,-0.000139213,-0.000124505,-0.000107601,-8.62e-05,-5.96e-05,-2.75e-05,1.47e-06,2.12e-05,4.46e-05,9.31e-05,0.000173396,0.000277572,0.000402601,0.000546116,0.000704626,0.000882187,0.001078854,0.001280847,0.001474092,0.001651046,0.001795486,0.00189243,0.001945777,0.001956783,0.00191099,0.001800227,0.001638705,0.001450167,0.001246914,0.001033578,0.000819281,0.000615164,0.000431168,0.000270574,0.000125838,-1.16e-05,-0.000138453,-0.000247404,-0.00034,-0.000421723,-0.000494947,-0.000558013,-0.000609148,-0.000650126,-0.000682177,-0.000703868,-0.000716287,-0.000724227,-0.000731161,-0.000737633,-0.000742868,-0.000746545,-0.000749682,-0.000753033,-0.000755002,-0.000752851,-0.000744766,-0.000730204,-0.000708877,-0.000680502,-0.000645971,-0.000608279,-0.000570786,-0.000534263,-0.000498702,-0.000466061,-0.000438541,-0.000416132,-0.000397804,-0.000383187,-0.000372466,-0.000366296,-0.000364901,-0.000367465,-0.000372914,-0.000380428,-0.000389079,-0.000397613,-0.000405706,-0.000414245,-0.000423391,-0.000431806,-0.000438265,-0.000443211,-0.00044765,-0.000451502,-0.000453862,-0.000453344,-0.000448908,-0.00044121,-0.00043271,-0.000425825,-0.000421405,-0.000421013,-0.000427302,-0.000441217,-0.000461716,-0.000487969,-0.000520052,-0.000556894,-0.000594742,-0.000629468,-0.000658884,-0.000681159,-0.000694483,-0.000697738,-0.000689945,-0.000671587,-0.000644835,-0.000610823,-0.000569735,-0.000523946,-0.00047776,-0.000433457,-0.000389998,-0.000345512,-0.000299301,-0.000250679,-0.000197418,-0.000137162,-6.88e-05,6.89e-06,8.78e-05,0.000171443,0.000255449,0.000337656,0.000414863,0.000482889,0.00053671,0.000568874,0.00057157,0.000541256,0.000478764,0.000390724,0.000292077,0.000199464,0.000122471,6.39e-05,2.35e-05,-9.06e-07,-1.37e-05,-2.02e-05,-2.36e-05,-2.7e-05,-3.82e-05,-6.85e-05,-0.000123789,-0.000199214,-0.000282653,-0.000361806,-0.000427628,-0.000469396,-0.000474141,-0.000433527,-0.000347329,-0.000222395,-7.19e-05,8.37e-05,0.000221366,0.000326834,0.00040121,0.0004558,0.000502253,0.000549631,0.000603348,0.000664385,0.000729388,0.000792269,0.000845695,0.000881799,0.000894328,0.000881104,0.000846595,0.000801317,0.000755152,0.000714506,0.000685004,0.000669387,0.00066169,0.000653082,0.000636857
"7",7,106,10,0.0086,129,123,3,215,87,0,0,0,"L","PACIFIC COD",2,"LPW202001202_7_OA2","PACIFIC_COD_LPW202001202_7_OA2.0","NIR_LPW202001202_otoliths_rescan_1","","/Users/zachstamplis/Desktop/Thesis and Otoliths/Github/LPW_FT-NIRS/FT-NIRS_spectra/LPW_scans/PACIFIC_COD_LPW202001202_7_OA2.0",7.56e-05,7.26e-05,7.42e-05,7.15e-05,7.26e-05,8.91e-05,0.000116105,0.000141947,0.00016022,0.000170388,0.000179292,0.000196399,0.000214387,0.00021365,0.000188513,0.000141804,7.98e-05,2.41e-05,-3.56e-06,-3.49e-06,1.09e-05,2.83e-05,4.41e-05,7.27e-05,0.000119865,0.000157041,0.000162673,0.000144212,0.000116299,9.34e-05,8.92e-05,0.000106626,0.000136194,0.000168236,0.000189916,0.000186385,0.000164631,0.000141298,0.000112653,7.47e-05,4.48e-05,3.76e-05,4.76e-05,6.56e-05,8.94e-05,0.00011384,0.00012879,0.00013628,0.00014412,0.000148744,0.000149534,0.000149367,0.000138371,0.000113647,8.99e-05,7.29e-05,5.55e-05,3.89e-05,3.09e-05,3.27e-05,4.39e-05,6.55e-05,9.42e-05,0.000120722,0.000141439,0.000159323,0.000167777,0.000154766,0.000123118,8.8e-05,5.74e-05,3.24e-05,2.44e-05,4.32e-05,7.36e-05,9.52e-05,0.000106444,0.000116602,0.000126727,0.00012791,0.000112636,8.65e-05,6.92e-05,7.36e-05,9.23e-05,0.000113435,0.000133351,0.000146703,0.000146101,0.000134897,0.000126744,0.000122327,0.000109673,8.72e-05,6.04e-05,3.47e-05,1.91e-05,1.58e-05,2.03e-05,3.41e-05,5.98e-05,9.18e-05,0.000126984,0.000164584,0.000192957,0.000196867,0.000175458,0.000143957,0.0001115,7.81e-05,5.45e-05,5.16e-05,6.4e-05,8.57e-05,0.00011018,0.000126538,0.000134885,0.000140867,0.000139138,0.000125693,0.000110398,0.000103474,0.000101493,9.65e-05,9.06e-05,8.83e-05,8.69e-05,8.69e-05,8.74e-05,7.92e-05,6.64e-05,6.29e-05,7.08e-05,8.43e-05,9.57e-05,0.000100387,0.000101753,0.000101301,9.55e-05,8.85e-05,9.02e-05,0.000101201,0.000111121,0.000112037,0.000108212,0.000108577,0.000110806,0.000106525,9.49e-05,8.23e-05,7.31e-05,6.59e-05,5.77e-05,4.99e-05,4.75e-05,4.82e-05,4.71e-05,4.85e-05,5.68e-05,6.78e-05,7.49e-05,7.4e-05,7.32e-05,8.53e-05,0.000103868,0.000110278,0.000105348,0.000104716,0.000109278,0.000109913,0.00010565,9.77e-05,8.28e-05,6.36e-05,5.27e-05,5.94e-05,7.9e-05,9.66e-05,9.93e-05,8.7e-05,7.42e-05,7.08e-05,6.97e-05,6.29e-05,5.73e-05,6.15e-05,6.79e-05,6.68e-05,6.39e-05,6.27e-05,5.77e-05,4.96e-05,4.51e-05,4.88e-05,6.17e-05,7.96e-05,9.53e-05,0.000105258,0.000108729,0.000100534,7.94e-05,5.43e-05,3.83e-05,3.55e-05,3.85e-05,4.13e-05,4.25e-05,4.51e-05,5.43e-05,6.8e-05,7.89e-05,8.61e-05,9.17e-05,9.03e-05,7.85e-05,6.37e-05,5.22e-05,4.48e-05,4.48e-05,5.35e-05,6.31e-05,6.95e-05,7.74e-05,8.51e-05,8.68e-05,8.13e-05,6.99e-05,5.52e-05,4.1e-05,3.23e-05,3.15e-05,3.76e-05,5.19e-05,6.78e-05,7.51e-05,7.79e-05,8.42e-05,8.65e-05,7.45e-05,5.54e-05,4.18e-05,3.61e-05,3.73e-05,4.64e-05,6.06e-05,7.01e-05,7.16e-05,7.1e-05,6.63e-05,5.52e-05,4.28e-05,2.99e-05,1.8e-05,1.33e-05,1.74e-05,2.56e-05,3.72e-05,5.23e-05,6.24e-05,6.1e-05,5.59e-05,5.69e-05,5.8e-05,5.14e-05,4.67e-05,5.09e-05,5.67e-05,5.86e-05,5.66e-05,5.18e-05,4.56e-05,3.94e-05,3.17e-05,2e-05,7.58e-06,-2.74e-06,-9.88e-06,-8.42e-06,7.39e-06,3.11e-05,5.01e-05,6.32e-05,7.6e-05,8.84e-05,9.48e-05,8.97e-05,7.56e-05,5.83e-05,4.01e-05,2.3e-05,1.22e-05,1.33e-05,2.39e-05,3.28e-05,3.28e-05,2.89e-05,2.87e-05,2.91e-05,2.43e-05,1.75e-05,1.58e-05,2.05e-05,2.52e-05,2.66e-05,2.91e-05,3.29e-05,3.17e-05,2.45e-05,1.82e-05,2.04e-05,3.04e-05,4.04e-05,4.37e-05,4.11e-05,3.71e-05,3.35e-05,2.75e-05,1.74e-05,7.04e-06,2.26e-06,5.53e-06,1.5e-05,2.65e-05,3.58e-05,3.85e-05,3.37e-05,2.72e-05,2.35e-05,2.24e-05,2.36e-05,2.58e-05,2.73e-05,3.06e-05,3.8e-05,4.57e-05,4.72e-05,4.24e-05,3.74e-05,3.45e-05,3.26e-05,3.43e-05,4.14e-05,4.77e-05,4.68e-05,3.95e-05,2.75e-05,1.34e-05,3.99e-06,2.34e-06,4.06e-06,6.69e-06,1.12e-05,1.77e-05,2.63e-05,3.63e-05,4.46e-05,4.73e-05,3.99e-05,2.65e-05,1.65e-05,1.2e-05,1.09e-05,1.16e-05,1.1e-05,7.09e-06,2.2e-06,-7.5e-07,2.43e-07,5.2e-06,8.3e-06,4.41e-06,-3.33e-06,-8.8e-06,-9.82e-06,-9.55e-06,-1.14e-05,-1.5e-05,-1.87e-05,-2.07e-05,-1.98e-05,-1.49e-05,-7.07e-06,1.08e-06,8.1e-06,1.1e-05,8.69e-06,4.41e-06,-1.5e-06,-1.01e-05,-1.94e-05,-2.81e-05,-3.47e-05,-3.51e-05,-2.93e-05,-2.35e-05,-2.11e-05,-1.93e-05,-1.69e-05,-1.59e-05,-1.94e-05,-2.59e-05,-3.18e-05,-3.62e-05,-3.87e-05,-3.97e-05,-3.98e-05,-3.77e-05,-3.52e-05,-3.56e-05,-3.93e-05,-4.47e-05,-4.93e-05,-5.25e-05,-5.54e-05,-5.65e-05,-5.28e-05,-4.53e-05,-3.75e-05,-3.23e-05,-3.14e-05,-3.35e-05,-3.7e-05,-4.25e-05,-4.94e-05,-5.55e-05,-5.83e-05,-5.69e-05,-5.4e-05,-5.29e-05,-5.42e-05,-5.73e-05,-5.95e-05,-5.78e-05,-5.44e-05,-5.18e-05,-5.01e-05,-4.89e-05,-4.84e-05,-4.78e-05,-4.6e-05,-4.37e-05,-4.16e-05,-4.08e-05,-4.28e-05,-4.75e-05,-5.3e-05,-5.84e-05,-6.38e-05,-6.86e-05,-7.04e-05,-6.87e-05,-6.39e-05,-5.62e-05,-4.79e-05,-4.29e-05,-4.29e-05,-4.69e-05,-5.44e-05,-6.3e-05,-6.91e-05,-7.08e-05,-7.1e-05,-7.29e-05,-7.53e-05,-7.64e-05,-7.68e-05,-7.67e-05,-7.55e-05,-7.33e-05,-6.99e-05,-6.58e-05,-6.22e-05,-5.95e-05,-5.65e-05,-5.37e-05,-5.41e-05,-5.8e-05,-6.26e-05,-6.6e-05,-6.95e-05,-7.31e-05,-7.37e-05,-6.91e-05,-6.18e-05,-5.51e-05,-5e-05,-4.67e-05,-4.57e-05,-4.78e-05,-5.41e-05,-6.19e-05,-6.6e-05,-6.56e-05,-6.21e-05,-5.6e-05,-4.79e-05,-4.05e-05,-3.75e-05,-4.04e-05,-4.76e-05,-5.69e-05,-6.61e-05,-7.19e-05,-7.13e-05,-6.64e-05,-5.84e-05,-4.65e-05,-3.33e-05,-2.57e-05,-2.86e-05,-4.08e-05,-5.64e-05,-6.89e-05,-7.71e-05,-8.29e-05,-8.58e-05,-8.55e-05,-7.99e-05,-6.76e-05,-5.35e-05,-4.07e-05,-2.93e-05,-2.33e-05,-2.34e-05,-2.38e-05,-2.11e-05,-1.57e-05,-7e-06,3.67e-06,1.44e-05,2.83e-05,4.87e-05,7.48e-05,0.000101795,0.000125354,0.000148863,0.000173969,0.000193592,0.000206626,0.000217844,0.000228105,0.000237749,0.000244911,0.000246102,0.000245376,0.000247847,0.00024863,0.000242938,0.000232606,0.000219253,0.000203666,0.000185996,0.000168069,0.000152523,0.000137516,0.000122423,0.000109985,9.96e-05,8.95e-05,7.91e-05,6.54e-05,4.75e-05,2.75e-05,7.63e-06,-9.54e-06,-2.39e-05,-3.74e-05,-5.08e-05,-6.22e-05,-6.86e-05,-7.12e-05,-7.46e-05,-8.17e-05,-9.37e-05,-0.000108856,-0.000123981,-0.000137132,-0.00014753,-0.000156007,-0.000164254,-0.000173171,-0.000181455,-0.000187247,-0.000191905,-0.000198756,-0.00020859,-0.000219847,-0.000231433,-0.000241972,-0.00025058,-0.000257935,-0.000265074,-0.000272978,-0.000279843,-0.000282861,-0.000283389,-0.000283847,-0.000284854,-0.000287479,-0.000292486,-0.000298353,-0.000302471,-0.000303064,-0.000300821,-0.000297707,-0.000294389,-0.000291523,-0.00028979,-0.000288916,-0.000288819,-0.000289198,-0.000289836,-0.000291052,-0.000291885,-0.000290702,-0.000287056,-0.000280978,-0.000273583,-0.000267361,-0.000262876,-0.00025879,-0.000254795,-0.000251523,-0.000249324,-0.000248466,-0.000249932,-0.000253541,-0.000256227,-0.000255727,-0.000253267,-0.000250499,-0.00024762,-0.000244488,-0.000240424,-0.000235877,-0.000233396,-0.000233952,-0.00023577,-0.000237204,-0.000238253,-0.000238966,-0.000238914,-0.000238846,-0.00023942,-0.000239847,-0.00023949,-0.000238926,-0.000239323,-0.000241814,-0.000245785,-0.000248139,-0.000247781,-0.000246907,-0.000246475,-0.000245417,-0.000243256,-0.000241131,-0.000239669,-0.000238165,-0.000237579,-0.000239792,-0.000243963,-0.00024722,-0.0002477,-0.00024568,-0.000242498,-0.000238552,-0.00023357,-0.000228273,-0.000223918,-0.000220843,-0.000218852,-0.000218456,-0.000220123,-0.000222929,-0.000225179,-0.000225846,-0.000224424,-0.000220453,-0.000214758,-0.000209204,-0.000204971,-0.000201735,-0.000197538,-0.00019118,-0.000184277,-0.000178527,-0.000173075,-0.000166967,-0.000161291,-0.000156904,-0.000152969,-0.000149225,-0.000147064,-0.000147962,-0.000151198,-0.000153576,-0.000153449,-0.000152716,-0.000153355,-0.000155369,-0.000157339,-0.000158159,-0.000158384,-0.000158445,-0.000158084,-0.000157849,-0.000159421,-0.000164323,-0.000172299,-0.00018139,-0.000190324,-0.00019976,-0.00020934,-0.000216587,-0.000219719,-0.000218604,-0.000214028,-0.000207272,-0.000199492,-0.000192115,-0.000187371,-0.000186591,-0.000188969,-0.000193039,-0.00019858,-0.00020604,-0.00021416,-0.000220951,-0.000225847,-0.000228624,-0.00022878,-0.000227304,-0.000226363,-0.00022675,-0.000227828,-0.000227969,-0.000226347,-0.000226342,-0.000230984,-0.000236973,-0.000239542,-0.000239215,-0.000239391,-0.000239616,-0.000238421,-0.000236393,-0.000235302,-0.000236793,-0.000235515,-0.000224647,-0.000207642,-0.000194582,-0.000187635,-0.000179671,-0.000167533,-0.000149815,-0.000125273,-0.000102332,-8.99e-05,-7.93e-05,-5.12e-05,-3.5e-07,6.54e-05,0.000143576,0.000233163,0.000331836,0.000445082,0.000576544,0.000716006,0.000852226,0.000980608,0.001088504,0.001163367,0.001209963,0.001232723,0.001219779,0.001160254,0.001062231,0.000943619,0.000813146,0.000672432,0.000527476,0.000386673,0.000257148,0.000142209,3.68e-05,-6.61e-05,-0.00016317,-0.000245775,-0.000314076,-0.000374809,-0.000431126,-0.0004799,-0.000518503,-0.000548844,-0.00057257,-0.000588575,-0.000597736,-0.000603885,-0.000608735,-0.000611718,-0.000612501,-0.000611149,-0.000608837,-0.000606965,-0.000604389,-0.000598711,-0.000588977,-0.000574953,-0.000555946,-0.000531798,-0.00050327,-0.000472011,-0.000439844,-0.000407743,-0.000377056,-0.000349485,-0.000325628,-0.000305372,-0.000288687,-0.000275497,-0.000266305,-0.000261848,-0.000261635,-0.000264597,-0.00027001,-0.000277507,-0.000286548,-0.000295882,-0.000305032,-0.0003148,-0.000324844,-0.000334018,-0.000342696,-0.000351132,-0.000358491,-0.000364074,-0.000367273,-0.000367645,-0.000365484,-0.000361873,-0.000358334,-0.000356563,-0.000358459,-0.000365706,-0.000378945,-0.000397796,-0.000421696,-0.000450649,-0.000484129,-0.000520447,-0.000557425,-0.00059217,-0.000621331,-0.000642165,-0.000653485,-0.000655354,-0.000648016,-0.000632119,-0.000608741,-0.000579111,-0.000544888,-0.000508464,-0.000472686,-0.000438835,-0.000405625,-0.000370856,-0.00033293,-0.000292007,-0.000248686,-0.000201432,-0.000147856,-8.76e-05,-2.26e-05,4.5e-05,0.000114425,0.000184631,0.000252514,0.000313931,0.000363861,0.000394649,0.00039721,0.000366042,0.000302004,0.000214223,0.000119238,3.24e-05,-3.84e-05,-8.99e-05,-0.000120575,-0.000132231,-0.000130829,-0.000123237,-0.000113398,-0.000105264,-0.000106159,-0.000124425,-0.000162736,-0.000215859,-0.000273939,-0.000328813,-0.000375473,-0.000406784,-0.000412442,-0.00038515,-0.000324703,-0.000237236,-0.000132778,-2.52e-05,6.97e-05,0.000142078,0.00019281,0.000230477,0.000263894,0.000299993,0.000342546,0.000392047,0.000446097,0.000499907,0.000547234,0.000581838,0.00060006,0.00060117,0.000587601,0.000564972,0.000538596,0.000513358,0.000496288,0.000490712,0.000487929,0.000478587,0.000461903
"8",8,95,7,0.0072,116,123,3,215,99,0,0,0,"R","PACIFIC COD",2,"LPW202001202_8_OA2","PACIFIC_COD_LPW202001202_8_OA2.0","NIR_LPW202001202_otoliths_rescan_1","","/Users/zachstamplis/Desktop/Thesis and Otoliths/Github/LPW_FT-NIRS/FT-NIRS_spectra/LPW_scans/PACIFIC_COD_LPW202001202_8_OA2.0",0.000183055,0.000176859,0.000158611,0.000124761,8.3e-05,4.71e-05,2.65e-05,1.76e-05,1.33e-05,2.11e-05,4.73e-05,8.61e-05,0.000127931,0.000162245,0.000180916,0.000174918,0.000137775,8.72e-05,6.02e-05,6.62e-05,7.99e-05,8.12e-05,7.12e-05,6.45e-05,6.81e-05,7.67e-05,9.1e-05,0.000110499,0.000126197,0.000129534,0.000126924,0.000131224,0.000141018,0.000141932,0.000126824,0.000110432,0.000106458,0.000109208,0.000117248,0.000135621,0.000156162,0.000162284,0.000150358,0.000132344,0.000116655,0.000103343,9.75e-05,0.000106853,0.000123573,0.000131837,0.000131194,0.000129105,0.000124496,0.000111948,8.71e-05,5.46e-05,3.17e-05,2.94e-05,4.18e-05,5.91e-05,7.65e-05,9.26e-05,0.000100449,9.57e-05,8.92e-05,9.15e-05,0.000101766,0.000113154,0.000118816,0.000110782,8.82e-05,6.7e-05,6.36e-05,7.59e-05,9.06e-05,0.00010273,0.000114018,0.000121936,0.000123114,0.000116332,0.000102624,8.28e-05,5.44e-05,2.43e-05,1.3e-05,3.8e-05,9.03e-05,0.0001374,0.00016133,0.000168492,0.000167527,0.000153282,0.00011931,7.95e-05,5.46e-05,4.79e-05,5.14e-05,6.54e-05,9.07e-05,0.000115778,0.000125796,0.000114708,9.28e-05,7.53e-05,6.58e-05,6.01e-05,5.92e-05,7e-05,8.79e-05,9.97e-05,0.000106995,0.000120854,0.000134089,0.00013363,0.000127825,0.000122478,0.000110586,9.64e-05,8.62e-05,7.82e-05,7.17e-05,7.03e-05,7.36e-05,7.6e-05,8.12e-05,9.41e-05,0.000107665,0.000110297,0.000100888,8.15e-05,5.24e-05,2.91e-05,2.94e-05,4.73e-05,6.97e-05,9.17e-05,0.000112724,0.000130135,0.000139379,0.000140886,0.000137361,0.00012617,0.000108334,9.53e-05,9.18e-05,9.72e-05,0.000115051,0.000132638,0.000129974,0.000108385,8.5e-05,6.89e-05,5.24e-05,3.28e-05,2.3e-05,2.29e-05,2.07e-05,2.03e-05,2.92e-05,4.07e-05,4.94e-05,5.26e-05,5.33e-05,6.43e-05,8.99e-05,0.000120486,0.000145033,0.000158073,0.000159938,0.000148604,0.000122863,9.31e-05,7.04e-05,5.32e-05,3.62e-05,2.44e-05,2.81e-05,4.22e-05,5.51e-05,6.92e-05,8.5e-05,9.03e-05,8.19e-05,6.88e-05,5.62e-05,4.81e-05,4.72e-05,5.01e-05,5.28e-05,5.59e-05,6.51e-05,7.62e-05,7.75e-05,7.17e-05,6.72e-05,6.31e-05,5.67e-05,4.83e-05,3.91e-05,3.47e-05,4.05e-05,5.16e-05,6.28e-05,7.31e-05,7.76e-05,7.45e-05,6.99e-05,6.98e-05,7.14e-05,6.52e-05,4.86e-05,3.18e-05,2.64e-05,3.19e-05,3.88e-05,4.17e-05,4.55e-05,5.58e-05,7.1e-05,8.38e-05,9.13e-05,9.43e-05,8.89e-05,7.45e-05,6.14e-05,5.61e-05,5.41e-05,5.04e-05,4.73e-05,4.77e-05,5.05e-05,5.16e-05,4.72e-05,3.84e-05,2.96e-05,2.53e-05,2.81e-05,3.58e-05,4.62e-05,5.94e-05,7.3e-05,8.28e-05,8.84e-05,9.11e-05,8.72e-05,7.47e-05,5.89e-05,4.76e-05,4.42e-05,4.78e-05,5.44e-05,6e-05,6.02e-05,5.44e-05,4.81e-05,4.26e-05,3.63e-05,3.05e-05,2.45e-05,1.96e-05,2.25e-05,3.46e-05,4.53e-05,4.63e-05,4.19e-05,3.93e-05,3.99e-05,3.92e-05,3.54e-05,3.55e-05,4.16e-05,4.8e-05,5.27e-05,5.66e-05,5.66e-05,4.9e-05,3.27e-05,1.23e-05,-6.64e-07,-1.31e-06,1.57e-06,4.62e-06,1.42e-05,3.2e-05,5.09e-05,6.19e-05,6.64e-05,7.13e-05,7.36e-05,6.67e-05,5.2e-05,3.38e-05,1.7e-05,4.37e-06,-6.8e-06,-1.78e-05,-2.41e-05,-2.4e-05,-1.88e-05,-7.51e-06,1.02e-05,3.06e-05,4.77e-05,5.66e-05,5.76e-05,5.47e-05,4.73e-05,3.67e-05,2.86e-05,2.54e-05,2.35e-05,1.94e-05,1.42e-05,9.79e-06,7.86e-06,9.04e-06,1.09e-05,1.06e-05,9.13e-06,1.03e-05,1.17e-05,8.65e-06,5.93e-06,6.26e-06,4.86e-06,1.86e-06,2.14e-06,8.06e-06,1.9e-05,3.35e-05,4.73e-05,5.64e-05,6.08e-05,5.96e-05,5.16e-05,3.74e-05,2.24e-05,1.34e-05,7.48e-06,-2.47e-07,-5.13e-06,-2.21e-06,5.25e-06,1.23e-05,1.83e-05,2.3e-05,2.45e-05,2.27e-05,2e-05,1.99e-05,2.09e-05,1.91e-05,1.38e-05,7.58e-06,6.66e-06,1.35e-05,1.97e-05,1.86e-05,1.48e-05,1.19e-05,7.22e-06,2.54e-06,2.46e-06,5.96e-06,8.32e-06,7.76e-06,5.68e-06,2.82e-06,-1.26e-06,-7.53e-06,-1.77e-05,-2.93e-05,-3.4e-05,-2.74e-05,-1.36e-05,1.66e-06,1.3e-05,1.67e-05,1.38e-05,5.34e-06,-9.75e-06,-2.88e-05,-4.27e-05,-4.69e-05,-4.68e-05,-4.59e-05,-3.96e-05,-2.8e-05,-1.82e-05,-1.54e-05,-2.01e-05,-2.67e-05,-3e-05,-3.27e-05,-3.64e-05,-3.63e-05,-3.16e-05,-2.87e-05,-3.1e-05,-3.32e-05,-3.24e-05,-3.24e-05,-3.54e-05,-3.94e-05,-4.16e-05,-3.92e-05,-3.38e-05,-3.02e-05,-2.88e-05,-3.03e-05,-3.76e-05,-4.97e-05,-5.99e-05,-6.36e-05,-6.26e-05,-5.91e-05,-5.27e-05,-4.52e-05,-4.11e-05,-4.22e-05,-4.68e-05,-5.26e-05,-5.65e-05,-5.89e-05,-6.19e-05,-6.44e-05,-6.44e-05,-6.15e-05,-5.92e-05,-5.95e-05,-6.12e-05,-6.27e-05,-6.27e-05,-6.13e-05,-5.92e-05,-5.77e-05,-5.7e-05,-5.62e-05,-5.54e-05,-5.48e-05,-5.32e-05,-4.9e-05,-4.33e-05,-3.98e-05,-3.92e-05,-4.1e-05,-4.74e-05,-5.8e-05,-6.76e-05,-7.2e-05,-7.12e-05,-6.86e-05,-6.78e-05,-6.85e-05,-6.81e-05,-6.77e-05,-6.96e-05,-7.3e-05,-7.64e-05,-7.93e-05,-8.24e-05,-8.56e-05,-8.84e-05,-9.05e-05,-9.28e-05,-9.47e-05,-9.45e-05,-9.05e-05,-8.33e-05,-7.71e-05,-7.34e-05,-6.87e-05,-6.33e-05,-6.1e-05,-6.19e-05,-6.43e-05,-6.66e-05,-6.83e-05,-7.05e-05,-7.33e-05,-7.69e-05,-8.07e-05,-8.21e-05,-8.08e-05,-7.77e-05,-7.26e-05,-6.65e-05,-6.27e-05,-6.28e-05,-6.73e-05,-7.4e-05,-7.89e-05,-8.18e-05,-8.2e-05,-7.77e-05,-7.15e-05,-6.64e-05,-6.16e-05,-5.63e-05,-5.29e-05,-5.37e-05,-5.91e-05,-6.57e-05,-6.9e-05,-6.83e-05,-6.37e-05,-5.51e-05,-4.45e-05,-3.86e-05,-4.3e-05,-5.65e-05,-7.16e-05,-8.12e-05,-8.6e-05,-9.11e-05,-9.68e-05,-1e-04,-9.7e-05,-8.78e-05,-7.66e-05,-6.51e-05,-5.4e-05,-4.84e-05,-4.91e-05,-4.93e-05,-4.39e-05,-3.4e-05,-2.2e-05,-1.17e-05,-6.13e-06,-4.28e-07,1.26e-05,3.37e-05,5.8e-05,7.87e-05,9.57e-05,0.000112423,0.000126752,0.000139335,0.000152071,0.000161966,0.000167431,0.000169379,0.000168404,0.00016894,0.000175785,0.000184346,0.000187661,0.000184013,0.000175584,0.000167573,0.000158819,0.000144466,0.000125916,0.000105197,8.49e-05,6.93e-05,5.69e-05,4.48e-05,3.4e-05,2.43e-05,1.5e-05,4.6e-06,-8.4e-06,-2.27e-05,-3.7e-05,-5.23e-05,-6.84e-05,-8.32e-05,-9.52e-05,-0.000104605,-0.000111297,-0.000114624,-0.000114863,-0.00011503,-0.000118702,-0.000126507,-0.000136864,-0.000148526,-0.000161651,-0.000176328,-0.000190061,-0.000200538,-0.000209029,-0.00021679,-0.000222341,-0.000225138,-0.000227808,-0.00023297,-0.000240258,-0.000247576,-0.000253799,-0.000259272,-0.000264158,-0.000268042,-0.000270722,-0.000272928,-0.000276464,-0.000281567,-0.000285686,-0.000287597,-0.00028887,-0.000289861,-0.000289597,-0.00028721,-0.000282496,-0.000277949,-0.000276125,-0.000276339,-0.000277227,-0.000278243,-0.000278991,-0.00027903,-0.000277215,-0.000273525,-0.000270241,-0.000268313,-0.000266347,-0.000263375,-0.000259704,-0.00025666,-0.000255059,-0.000253763,-0.000251732,-0.000249904,-0.000249106,-0.00024832,-0.000246604,-0.000244493,-0.000242695,-0.000240642,-0.000237495,-0.00023433,-0.000232785,-0.00023338,-0.000235943,-0.000239433,-0.000242119,-0.000243093,-0.000242635,-0.000240946,-0.000238886,-0.000238226,-0.000239118,-0.000240308,-0.000241336,-0.000242709,-0.000244972,-0.00024798,-0.00025124,-0.000253718,-0.000253822,-0.000252111,-0.00025082,-0.000250004,-0.000248791,-0.000247704,-0.000247022,-0.00024669,-0.000247408,-0.000249188,-0.000250938,-0.000251825,-0.000251509,-0.00025011,-0.000247897,-0.00024524,-0.000242919,-0.000240369,-0.000236784,-0.000233396,-0.000231,-0.000229381,-0.000228597,-0.000227936,-0.000227033,-0.000227012,-0.000227831,-0.000227658,-0.000225539,-0.000221909,-0.000217769,-0.000213768,-0.000209772,-0.000205761,-0.000201449,-0.00019602,-0.00018924,-0.000181756,-0.000174993,-0.000170324,-0.000167129,-0.000164479,-0.000163023,-0.000163208,-0.000164637,-0.000166561,-0.00016796,-0.000168318,-0.000167742,-0.000166733,-0.000165838,-0.000165886,-0.000167394,-0.000169245,-0.000170764,-0.000172835,-0.000176298,-0.000181683,-0.000189659,-0.000199794,-0.00020962,-0.00021735,-0.000223122,-0.000226696,-0.000227461,-0.000226025,-0.00022342,-0.000219658,-0.000215322,-0.000212517,-0.00021208,-0.000213147,-0.000215105,-0.000217373,-0.000219419,-0.000221577,-0.000224471,-0.000228019,-0.000231781,-0.000235466,-0.000238268,-0.000239877,-0.000241186,-0.000242484,-0.000243116,-0.000241846,-0.000238641,-0.000237305,-0.000240704,-0.000245029,-0.000245571,-0.000244063,-0.000244911,-0.00024746,-0.000249,-0.000248583,-0.000247198,-0.000247879,-0.000247312,-0.000238025,-0.00022184,-0.000209304,-0.000203479,-0.000196992,-0.000187145,-0.000174086,-0.000156423,-0.000140562,-0.000133331,-0.000125483,-9.99e-05,-5.38e-05,4.5e-06,7.37e-05,0.000152803,0.00023715,0.000331654,0.000442046,0.0005598,0.000675057,0.000785488,0.000880705,0.000949363,0.000996341,0.001025711,0.001024912,0.000982248,0.000904704,0.000808107,0.000698779,0.000577192,0.000449649,0.000324732,0.000209214,0.000106433,1.14e-05,-8.23e-05,-0.000170667,-0.000245856,-0.000308209,-0.000363863,-0.000415421,-0.000459874,-0.000495041,-0.000522345,-0.000543026,-0.000556754,-0.000564705,-0.000569777,-0.000573329,-0.000575212,-0.000575135,-0.000573518,-0.000571629,-0.000569574,-0.000565663,-0.00055837,-0.000546984,-0.000530899,-0.000509764,-0.00048377,-0.000453694,-0.000421503,-0.000389435,-0.000358586,-0.000329833,-0.000304124,-0.000281722,-0.000262054,-0.000244826,-0.000230906,-0.000221184,-0.000215949,-0.000215415,-0.000219195,-0.000226121,-0.000235095,-0.000244891,-0.000254301,-0.000263535,-0.000273586,-0.00028412,-0.00029424,-0.000304169,-0.000314437,-0.000324576,-0.000333111,-0.000338831,-0.000341024,-0.00033971,-0.000336628,-0.00033424,-0.000334566,-0.000338982,-0.000348293,-0.000363188,-0.000383911,-0.000410083,-0.000441295,-0.000476257,-0.000512482,-0.000547738,-0.000580474,-0.000608722,-0.000630035,-0.000643026,-0.000647653,-0.000643809,-0.00063114,-0.000610195,-0.000582671,-0.000550249,-0.000514553,-0.000477918,-0.000442166,-0.000407739,-0.000374081,-0.000339708,-0.000303354,-0.000264384,-0.000221345,-0.000171715,-0.000114566,-5.2e-05,1.4e-05,8.24e-05,0.000151863,0.000219774,0.000281607,0.000331102,0.000360009,0.00035969,0.000325433,0.000258632,0.000168531,7.12e-05,-1.83e-05,-9.09e-05,-0.000141912,-0.00016978,-0.000177339,-0.0001712,-0.000158413,-0.000144542,-0.000134111,-0.000132947,-0.000147524,-0.000178879,-0.000222019,-0.000269624,-0.000315539,-0.000354846,-0.000380543,-0.000384191,-0.000360486,-0.000309354,-0.000235243,-0.00014623,-5.46e-05,2.62e-05,8.77e-05,0.00013139,0.00016494,0.000195192,0.00022814,0.000268097,0.000315734,0.000368049,0.000420867,0.000469451,0.000507068,0.000529009,0.000535337,0.000528961,0.000514582,0.000496256,0.000476193,0.000458226,0.000447388,0.000440529,0.000428246,0.000404252
"9",9,112,3,0.0098,132,123,2.5,215,82,0,0,0,"L","PACIFIC COD",2,"LPW202001202_9_OA2","PACIFIC_COD_LPW202001202_9_OA2.0","NIR_LPW202001202_otoliths_rescan_1","","/Users/zachstamplis/Desktop/Thesis and Otoliths/Github/LPW_FT-NIRS/FT-NIRS_spectra/LPW_scans/PACIFIC_COD_LPW202001202_9_OA2.0",0.000206774,0.000211665,0.000201927,0.000171905,0.000129184,9.9e-05,9.28e-05,9.52e-05,9.57e-05,9.42e-05,8.74e-05,8.46e-05,9.48e-05,0.000109238,0.000112404,9.8e-05,8.24e-05,8.32e-05,9.57e-05,0.000106383,0.000109247,0.000101773,8.76e-05,7.82e-05,6.64e-05,4.83e-05,4.81e-05,7.37e-05,0.000102235,0.000122328,0.000149616,0.000188865,0.000213299,0.000205049,0.000173589,0.000138882,0.000110633,8.71e-05,6.71e-05,4.89e-05,4.4e-05,6.16e-05,8.21e-05,8.99e-05,9.79e-05,0.00011709,0.000138023,0.00015608,0.000173762,0.000182636,0.000178368,0.000162629,0.000133059,9.24e-05,5.84e-05,5.22e-05,6.87e-05,8.55e-05,0.000101001,0.000129677,0.000166051,0.00018428,0.00017284,0.000145138,0.000121389,0.000111102,0.000103069,8.17e-05,5.41e-05,3.96e-05,4.07e-05,4.17e-05,3.79e-05,4.64e-05,6.78e-05,8.41e-05,9.53e-05,0.000113004,0.000135889,0.000149474,0.000140309,0.000111016,8.32e-05,7.49e-05,8.23e-05,9.36e-05,0.000105388,0.000116861,0.000119559,0.000110547,0.000105434,0.000111538,0.000116639,0.000110542,9.47e-05,8.09e-05,8.13e-05,9.68e-05,0.000115291,0.000121485,0.000106652,7.3e-05,3.74e-05,1.93e-05,2.23e-05,3.5e-05,4.97e-05,6.75e-05,9.1e-05,0.000121772,0.000152308,0.000171875,0.000174838,0.00015733,0.000128805,0.000109542,0.000104897,0.000100745,8.57e-05,7.15e-05,7.65e-05,9.36e-05,0.00010188,9.92e-05,9.89e-05,0.000105536,0.000113947,0.0001211,0.000127376,0.000130588,0.000124068,0.000108226,9.24e-05,8.3e-05,7.9e-05,7.39e-05,6.92e-05,7.5e-05,9.1e-05,0.000106317,0.000112938,0.000109906,0.000101744,9.41e-05,9.04e-05,9.13e-05,9.3e-05,9.16e-05,9.08e-05,9.48e-05,9.99e-05,0.000100183,9.08e-05,7.29e-05,5.55e-05,4.38e-05,3.57e-05,3.36e-05,4.3e-05,6.39e-05,9.01e-05,0.000112999,0.000129359,0.000139622,0.00014121,0.000132738,0.000114526,8.79e-05,6.21e-05,4.68e-05,4.09e-05,3.86e-05,4.15e-05,5.35e-05,6.8e-05,7.54e-05,7.6e-05,7.16e-05,6.08e-05,4.84e-05,4.62e-05,5.87e-05,7.88e-05,9.8e-05,0.000109899,0.000111246,0.000103498,9.35e-05,8.69e-05,7.94e-05,6.64e-05,5.26e-05,4.79e-05,6.06e-05,8.46e-05,0.000101188,9.67e-05,7.65e-05,5.43e-05,3.87e-05,3.39e-05,3.89e-05,5.23e-05,6.88e-05,8.01e-05,8.8e-05,9.64e-05,0.000100316,9.6e-05,8.54e-05,7.24e-05,5.98e-05,4.72e-05,3.31e-05,2.27e-05,2.22e-05,3.04e-05,4.16e-05,5.36e-05,6.97e-05,8.87e-05,0.000106759,0.000119597,0.000120013,0.000106341,8.67e-05,6.88e-05,5.45e-05,4.39e-05,3.51e-05,2.51e-05,1.47e-05,1.21e-05,2.39e-05,4.4e-05,6.42e-05,8.26e-05,9.29e-05,9.09e-05,8.48e-05,7.99e-05,7.08e-05,5.56e-05,4.17e-05,3.57e-05,3.82e-05,4.44e-05,4.94e-05,5.46e-05,6.12e-05,6.37e-05,5.87e-05,4.89e-05,3.95e-05,3.61e-05,3.82e-05,4.34e-05,5.51e-05,7.14e-05,8.22e-05,8.21e-05,7.51e-05,6.87e-05,6.34e-05,5.18e-05,3.27e-05,1.64e-05,1.31e-05,2.48e-05,4.72e-05,7.03e-05,8.26e-05,7.82e-05,6.07e-05,3.84e-05,1.58e-05,-4.08e-06,-1.54e-05,-1.58e-05,-5.26e-06,1.78e-05,5.02e-05,7.87e-05,9.07e-05,8.68e-05,7.47e-05,6.07e-05,4.82e-05,3.79e-05,3.13e-05,2.87e-05,3.02e-05,3.48e-05,3.8e-05,3.7e-05,2.94e-05,1.61e-05,4.23e-06,1.48e-06,8.92e-06,2.2e-05,3.52e-05,4.43e-05,4.89e-05,5.08e-05,4.88e-05,4.46e-05,4.34e-05,4.56e-05,4.51e-05,3.97e-05,3.37e-05,2.79e-05,2.04e-05,1.37e-05,1.23e-05,1.4e-05,1.43e-05,1.59e-05,2.25e-05,3.22e-05,3.99e-05,4.03e-05,3.24e-05,2.41e-05,1.97e-05,1.29e-05,5.5e-06,7.6e-06,1.79e-05,2.81e-05,3.58e-05,4.45e-05,5.3e-05,5.41e-05,4.65e-05,3.77e-05,3.3e-05,3.13e-05,2.89e-05,2.62e-05,2.82e-05,3.32e-05,3.28e-05,2.59e-05,2.05e-05,2.17e-05,2.58e-05,2.89e-05,3.34e-05,4.05e-05,4.71e-05,5.03e-05,4.9e-05,4.5e-05,3.87e-05,2.6e-05,7.81e-06,-6.2e-06,-8.89e-06,-8.15e-07,1.23e-05,2.21e-05,2.54e-05,2.39e-05,1.99e-05,1.54e-05,1.02e-05,4.65e-06,-4.32e-07,-7.23e-06,-1.55e-05,-1.72e-05,-8.48e-06,2.54e-06,6.6e-06,2.84e-06,-2.13e-06,-2.8e-06,4.31e-07,3.79e-06,5.79e-06,6.76e-06,4.86e-06,-3.9e-07,-6.57e-06,-1.29e-05,-2.08e-05,-3.15e-05,-4.3e-05,-4.94e-05,-4.85e-05,-4.38e-05,-3.77e-05,-3.04e-05,-2.18e-05,-1.39e-05,-9.11e-06,-7.51e-06,-8.58e-06,-1.42e-05,-2.46e-05,-3.38e-05,-3.72e-05,-3.57e-05,-3.19e-05,-3e-05,-3.14e-05,-3.32e-05,-3.57e-05,-3.99e-05,-4.25e-05,-4.2e-05,-4.35e-05,-4.78e-05,-4.72e-05,-3.87e-05,-2.82e-05,-2.31e-05,-2.57e-05,-3.34e-05,-4.22e-05,-4.96e-05,-5.65e-05,-6.41e-05,-7.09e-05,-7.47e-05,-7.52e-05,-7.3e-05,-6.7e-05,-5.95e-05,-5.41e-05,-5e-05,-4.53e-05,-4.03e-05,-3.75e-05,-3.97e-05,-4.72e-05,-5.45e-05,-5.56e-05,-5.13e-05,-4.67e-05,-4.44e-05,-4.32e-05,-4.16e-05,-4.01e-05,-4.02e-05,-4.28e-05,-4.7e-05,-5.24e-05,-5.76e-05,-5.94e-05,-5.64e-05,-5.1e-05,-4.89e-05,-5.29e-05,-5.86e-05,-6.21e-05,-6.51e-05,-6.89e-05,-7.12e-05,-7.2e-05,-7.31e-05,-7.53e-05,-7.77e-05,-8.02e-05,-8.3e-05,-8.41e-05,-8.1e-05,-7.5e-05,-6.93e-05,-6.59e-05,-6.5e-05,-6.38e-05,-6.02e-05,-5.61e-05,-5.42e-05,-5.48e-05,-5.7e-05,-5.85e-05,-5.76e-05,-5.47e-05,-5.12e-05,-5.04e-05,-5.57e-05,-6.28e-05,-6.47e-05,-6.15e-05,-5.73e-05,-5.4e-05,-5.08e-05,-4.68e-05,-4.11e-05,-3.5e-05,-3.13e-05,-3.13e-05,-3.49e-05,-4.15e-05,-5e-05,-5.78e-05,-6.32e-05,-6.83e-05,-7.25e-05,-7.14e-05,-6.59e-05,-5.86e-05,-4.84e-05,-3.69e-05,-3.2e-05,-3.62e-05,-4.34e-05,-4.92e-05,-5.29e-05,-5.68e-05,-6.36e-05,-7.17e-05,-7.74e-05,-7.75e-05,-7.13e-05,-6.19e-05,-4.99e-05,-3.64e-05,-2.66e-05,-2.06e-05,-1.2e-05,-1.24e-06,6.3e-06,1.16e-05,1.74e-05,2.34e-05,3.25e-05,4.83e-05,7.19e-05,0.000100384,0.000127614,0.000153193,0.000178062,0.000198781,0.000217763,0.000238639,0.000257892,0.000272729,0.00028169,0.000281967,0.000276714,0.000271481,0.000264126,0.000252332,0.00023804,0.000222916,0.000209216,0.000196313,0.000183358,0.000172722,0.000161755,0.000146655,0.00012922,0.000110262,9.03e-05,7.25e-05,5.68e-05,4.11e-05,2.5e-05,9.07e-06,-5.36e-06,-1.81e-05,-2.97e-05,-4.02e-05,-4.99e-05,-5.99e-05,-7.01e-05,-7.97e-05,-8.92e-05,-9.96e-05,-0.000110493,-0.000120751,-0.000130455,-0.000140233,-0.000150158,-0.000160225,-0.00016974,-0.000177393,-0.000184066,-0.000191586,-0.000200395,-0.000210629,-0.000222326,-0.000234989,-0.000246692,-0.000255945,-0.000263964,-0.000270862,-0.00027461,-0.000275125,-0.000274751,-0.000275696,-0.000278821,-0.000284768,-0.000294084,-0.000304747,-0.00031242,-0.000314844,-0.000312901,-0.000308711,-0.000304303,-0.000299954,-0.000296027,-0.000294627,-0.000295486,-0.000295774,-0.000294418,-0.000292868,-0.000292857,-0.000292737,-0.000289087,-0.000282886,-0.000277367,-0.000273082,-0.00027002,-0.000268162,-0.000266585,-0.000264986,-0.000263008,-0.000259866,-0.000256822,-0.000256076,-0.000257226,-0.000257519,-0.000254709,-0.000250012,-0.000246532,-0.000244732,-0.000243546,-0.000242342,-0.000240427,-0.00023842,-0.000237655,-0.000238258,-0.000240252,-0.000243523,-0.000246016,-0.000246254,-0.000245418,-0.000244521,-0.00024325,-0.000241471,-0.000240357,-0.000241347,-0.000243575,-0.000244792,-0.000244242,-0.000243513,-0.000243853,-0.000243534,-0.000240926,-0.000238027,-0.000237813,-0.000240419,-0.000244034,-0.000247274,-0.000249652,-0.000250882,-0.000249776,-0.000245725,-0.00024032,-0.000235656,-0.000232127,-0.000228629,-0.000225015,-0.000222751,-0.000222726,-0.000224121,-0.000225995,-0.000228135,-0.000229626,-0.000229308,-0.000227107,-0.000223174,-0.000217868,-0.000212082,-0.000206335,-0.000200642,-0.00019494,-0.000189827,-0.000186399,-0.000183831,-0.000179753,-0.000173467,-0.00016592,-0.000158234,-0.00015197,-0.000148171,-0.000146689,-0.000147093,-0.000148502,-0.000150042,-0.000151716,-0.000153105,-0.000153212,-0.000151793,-0.000149758,-0.000148269,-0.000148192,-0.000150215,-0.000153684,-0.000156894,-0.000159173,-0.000161234,-0.000163984,-0.000167955,-0.000173671,-0.00018119,-0.000189978,-0.000199218,-0.000207537,-0.000213395,-0.000216336,-0.00021684,-0.00021411,-0.000207097,-0.000198267,-0.000191834,-0.000189396,-0.000190237,-0.000193625,-0.000199714,-0.000208094,-0.000216251,-0.000222036,-0.000226111,-0.000229337,-0.000230548,-0.000229174,-0.00022698,-0.00022597,-0.000226759,-0.000228012,-0.000228417,-0.000229808,-0.000233646,-0.000236595,-0.000235287,-0.000231965,-0.000231176,-0.000232464,-0.000232878,-0.000231728,-0.00023088,-0.000232829,-0.000233009,-0.000223575,-0.000205899,-0.000189581,-0.000178264,-0.000167239,-0.000155136,-0.000140527,-0.000120461,-0.000100994,-8.86e-05,-7.39e-05,-4e-05,1.66e-05,8.86e-05,0.000174284,0.000271465,0.000375533,0.00049067,0.000621138,0.000758545,0.000894027,0.001024405,0.001136445,0.001216242,0.001266845,0.001290823,0.00127681,0.001215496,0.001114296,0.000989871,0.000851091,0.00070095,0.000547463,0.00040038,0.000266858,0.000149202,4.1e-05,-6.48e-05,-0.000163647,-0.000246955,-0.000315602,-0.000376724,-0.000434235,-0.000484937,-0.000524898,-0.000555981,-0.000580817,-0.00059837,-0.000608755,-0.000615003,-0.000618986,-0.000621216,-0.000621891,-0.000620714,-0.000618077,-0.000614991,-0.000610809,-0.000603519,-0.000591974,-0.000576377,-0.000556784,-0.000532165,-0.000502098,-0.000469028,-0.000436146,-0.000404181,-0.000372986,-0.000343559,-0.000317817,-0.000297267,-0.000281715,-0.000269859,-0.000261508,-0.00025775,-0.000258645,-0.000262922,-0.000269295,-0.000277104,-0.000285749,-0.000293968,-0.000301336,-0.000309135,-0.000318329,-0.000328243,-0.000337446,-0.000345285,-0.000352623,-0.000360018,-0.000366056,-0.000368916,-0.000368433,-0.000366006,-0.000363483,-0.000362268,-0.000363446,-0.000369234,-0.000382112,-0.000401884,-0.000426332,-0.000454613,-0.000487057,-0.000522659,-0.000558534,-0.000591716,-0.000620416,-0.00064295,-0.000657641,-0.00066322,-0.00065859,-0.000644333,-0.000622563,-0.000594015,-0.0005584,-0.000517761,-0.000476186,-0.000436319,-0.000398504,-0.000361791,-0.000324449,-0.000285253,-0.000243229,-0.000196258,-0.000141969,-8e-05,-1.22e-05,6.03e-05,0.000136574,0.000213661,0.000286279,0.000349397,0.000398244,0.000426046,0.000425061,0.000390517,0.000323102,0.000232035,0.000134319,4.56e-05,-2.64e-05,-7.85e-05,-0.000110141,-0.000123589,-0.000124682,-0.000119698,-0.000112259,-0.00010586,-0.000107853,-0.000126977,-0.000165673,-0.00021838,-0.000275562,-0.000329711,-0.000375784,-0.000405877,-0.00040981,-0.000381482,-0.000320834,-0.000232074,-0.000124204,-1.28e-05,8.47e-05,0.000158098,0.000210131,0.000249911,0.000285452,0.000323122,0.000366808,0.00041695,0.000471047,0.000524735,0.000572257,0.00060796,0.000628493,0.000631573,0.000618051,0.000594178,0.000565663,0.000536061,0.000511761,0.000497057,0.000485563,0.000468972,0.000443664
"10",10,96,6,0.0076,NA,123,NA,215,NA,0,0,0,"R","PACIFIC COD",2,"LPW202001202_10_OA2","PACIFIC_COD_LPW202001202_10_OA2.0","NIR_LPW202001202_otoliths_rescan_1","","/Users/zachstamplis/Desktop/Thesis and Otoliths/Github/LPW_FT-NIRS/FT-NIRS_spectra/LPW_scans/PACIFIC_COD_LPW202001202_10_OA2.0",0.000116138,0.000136771,0.0001585,0.000163734,0.000133808,7.82e-05,2.48e-05,-4.68e-06,2.91e-06,4.2e-05,8.46e-05,0.000113481,0.000141151,0.000178893,0.000211671,0.000217178,0.000192196,0.000152702,0.000115602,9.51e-05,0.00010025,0.000111704,0.000104765,8.52e-05,6.13e-05,3.89e-05,3.21e-05,4.11e-05,5.65e-05,7.6e-05,0.000100932,0.000125277,0.000141238,0.000151098,0.000154684,0.000145757,0.000122562,9.33e-05,7.21e-05,6.53e-05,7.12e-05,8.39e-05,9.66e-05,0.000107347,0.000111118,0.00010438,9.75e-05,0.000101216,0.000109144,0.000109567,1e-04,8.94e-05,9.36e-05,0.000116538,0.000141051,0.000150729,0.00014475,0.000130106,0.000112103,9.25e-05,7.62e-05,6.71e-05,6e-05,6.04e-05,8.22e-05,0.000117822,0.000145706,0.000156269,0.00015198,0.0001352,0.000108538,8.21e-05,7.11e-05,7.53e-05,7.41e-05,6.22e-05,5.36e-05,5.33e-05,5.7e-05,5.34e-05,3.96e-05,3.27e-05,4.4e-05,6.44e-05,8.3e-05,1e-04,0.000117591,0.000130087,0.000127799,0.000111081,9.6e-05,9.6e-05,0.000109589,0.000126792,0.00013636,0.000131214,0.000111323,9.18e-05,8.98e-05,0.000100661,0.000105943,9.94e-05,9.12e-05,8.56e-05,8.06e-05,7.91e-05,7.86e-05,7.03e-05,5.67e-05,5.37e-05,7.07e-05,0.000102361,0.000129392,0.000133911,0.000120789,0.000101139,8.22e-05,6.96e-05,6.38e-05,7e-05,8.87e-05,0.000107439,0.00011677,0.000119041,0.000117802,0.000108031,9.04e-05,7.91e-05,8.18e-05,8.4e-05,7.54e-05,6.94e-05,7.55e-05,8.5e-05,9.07e-05,9.67e-05,0.000104762,0.000105617,9.74e-05,8.7e-05,8.05e-05,8.13e-05,8.58e-05,8.92e-05,9.3e-05,0.000100609,0.000110768,0.000117928,0.000116459,0.000104214,8.28e-05,5.82e-05,4.21e-05,4.33e-05,5.76e-05,7.25e-05,7.79e-05,7.46e-05,6.91e-05,6.36e-05,5.29e-05,3.47e-05,2.03e-05,1.97e-05,3.07e-05,5.26e-05,8.39e-05,0.000110968,0.000124282,0.000125827,0.000116936,0.000102568,9.07e-05,8.12e-05,7.07e-05,6.56e-05,7.56e-05,9e-05,8.86e-05,7.51e-05,6.4e-05,5.6e-05,4.75e-05,4.09e-05,3.73e-05,3.71e-05,4.25e-05,5.13e-05,5.76e-05,6.03e-05,6.5e-05,7.21e-05,7.8e-05,8.63e-05,9.6e-05,9.86e-05,9.33e-05,8.19e-05,6.41e-05,4.54e-05,3.18e-05,2.28e-05,1.99e-05,2.81e-05,4.71e-05,6.91e-05,8.3e-05,8.42e-05,7.78e-05,6.77e-05,5.51e-05,4.27e-05,3.04e-05,2.01e-05,1.7e-05,1.97e-05,2.8e-05,4.73e-05,7.34e-05,9.72e-05,0.000113267,0.000116374,0.000108154,9.79e-05,8.71e-05,7.16e-05,5.19e-05,3.11e-05,1.75e-05,1.87e-05,3.15e-05,4.36e-05,4.68e-05,4.39e-05,4.3e-05,4.62e-05,5.03e-05,5.38e-05,5.4e-05,5.04e-05,5e-05,5.81e-05,7.46e-05,9.31e-05,0.00010258,9.54e-05,7.7e-05,6.29e-05,5.63e-05,4.5e-05,2.6e-05,7.7e-06,-4.22e-06,-7.46e-06,-1.82e-06,7.75e-06,1.82e-05,2.97e-05,4.01e-05,4.53e-05,4.47e-05,4.43e-05,4.96e-05,5.46e-05,5.43e-05,5.28e-05,5.02e-05,4.6e-05,4.34e-05,4.08e-05,3.57e-05,3.25e-05,3.1e-05,2.48e-05,1.42e-05,7.3e-06,8.94e-06,1.52e-05,2.2e-05,2.92e-05,3.61e-05,4.45e-05,5.74e-05,6.88e-05,7.09e-05,6.49e-05,5.5e-05,4.21e-05,3.09e-05,2.6e-05,2.32e-05,1.87e-05,1.4e-05,1.12e-05,8.19e-06,4.07e-06,4.77e-06,1.13e-05,1.87e-05,2.64e-05,3.62e-05,4.65e-05,5.18e-05,4.87e-05,4e-05,2.87e-05,1.87e-05,1.04e-05,6.17e-07,-8.38e-06,-8.41e-06,2.59e-06,1.58e-05,2.17e-05,2.24e-05,2.62e-05,3.19e-05,3.62e-05,4.01e-05,4.13e-05,3.68e-05,2.61e-05,1.2e-05,1.54e-06,-2.69e-06,-5.98e-06,-1.02e-05,-1.05e-05,-4.52e-06,5.1e-06,1.3e-05,1.79e-05,2.14e-05,2.24e-05,2.21e-05,2.39e-05,2.8e-05,3.56e-05,4.36e-05,4.74e-05,4.8e-05,4.55e-05,3.85e-05,2.72e-05,1.45e-05,5.91e-06,2.45e-06,-5.11e-07,-1.56e-06,3.83e-06,1.37e-05,2.25e-05,2.83e-05,3.16e-05,3.17e-05,2.99e-05,2.99e-05,3.1e-05,2.83e-05,1.94e-05,4.28e-06,-1.28e-05,-2.49e-05,-2.81e-05,-2.43e-05,-1.88e-05,-1.21e-05,-4.17e-06,7.86e-07,1.91e-06,1.51e-06,-4.9e-06,-1.97e-05,-3.33e-05,-3.76e-05,-3.19e-05,-1.83e-05,-4.68e-06,1.45e-06,8.34e-07,-3.11e-06,-9.02e-06,-1.57e-05,-2.11e-05,-2.71e-05,-3.6e-05,-4.09e-05,-3.61e-05,-2.55e-05,-1.75e-05,-1.74e-05,-2.32e-05,-2.96e-05,-3.23e-05,-3.09e-05,-2.89e-05,-3.07e-05,-3.67e-05,-4.26e-05,-4.44e-05,-4.12e-05,-3.85e-05,-4.05e-05,-4.38e-05,-4.51e-05,-4.32e-05,-3.68e-05,-2.95e-05,-2.59e-05,-2.68e-05,-2.97e-05,-3.18e-05,-3.33e-05,-3.85e-05,-4.82e-05,-5.63e-05,-5.87e-05,-5.57e-05,-5.12e-05,-4.9e-05,-4.99e-05,-5.25e-05,-5.48e-05,-5.65e-05,-5.82e-05,-6.01e-05,-6.31e-05,-6.79e-05,-7.16e-05,-6.98e-05,-6.5e-05,-6.33e-05,-6.42e-05,-6.48e-05,-6.44e-05,-6.28e-05,-6.05e-05,-5.91e-05,-5.85e-05,-5.65e-05,-5.42e-05,-5.36e-05,-5.43e-05,-5.49e-05,-5.63e-05,-6.13e-05,-6.86e-05,-7.24e-05,-7.21e-05,-7.1e-05,-6.87e-05,-6.43e-05,-6.02e-05,-5.64e-05,-5.32e-05,-5.29e-05,-5.51e-05,-5.76e-05,-6.19e-05,-7.04e-05,-8.11e-05,-9.08e-05,-9.77e-05,-0.000101049,-0.000101242,-9.99e-05,-9.79e-05,-9.23e-05,-8.19e-05,-7.08e-05,-6.27e-05,-5.84e-05,-5.89e-05,-6.37e-05,-6.93e-05,-7.28e-05,-7.35e-05,-7.28e-05,-7.23e-05,-7.23e-05,-7.03e-05,-6.57e-05,-6.32e-05,-6.47e-05,-6.75e-05,-7.01e-05,-7.28e-05,-7.43e-05,-7.53e-05,-7.88e-05,-8.27e-05,-8.29e-05,-7.88e-05,-7.13e-05,-6.25e-05,-5.58e-05,-5.43e-05,-5.59e-05,-5.69e-05,-5.89e-05,-6.42e-05,-7.23e-05,-8.17e-05,-9.04e-05,-9.48e-05,-9.08e-05,-7.78e-05,-6.2e-05,-5.23e-05,-5.19e-05,-5.7e-05,-6.33e-05,-6.67e-05,-6.89e-05,-7.55e-05,-8.54e-05,-9.25e-05,-9.3e-05,-8.67e-05,-7.65e-05,-6.54e-05,-5.73e-05,-5.51e-05,-5.61e-05,-5.56e-05,-5.15e-05,-4.26e-05,-2.87e-05,-1.41e-05,-1.89e-06,1.26e-05,3.09e-05,4.92e-05,6.73e-05,8.23e-05,9.38e-05,0.000106601,0.000120621,0.0001352,0.000152829,0.000172974,0.000191172,0.000201647,0.000202023,0.000198223,0.00019601,0.000190351,0.000177935,0.00016296,0.000148652,0.000139531,0.000135075,0.000128876,0.000120657,0.000111799,0.000100776,8.71e-05,7.13e-05,5.59e-05,4.35e-05,3.13e-05,1.6e-05,-5.96e-08,-1.44e-05,-2.84e-05,-4.39e-05,-5.9e-05,-6.98e-05,-7.57e-05,-7.99e-05,-8.46e-05,-8.98e-05,-9.49e-05,-0.000100983,-0.000110376,-0.000123179,-0.000135783,-0.000146254,-0.000156708,-0.000168277,-0.000178383,-0.00018539,-0.000191765,-0.000200238,-0.000209476,-0.000216855,-0.000222631,-0.000227788,-0.000232749,-0.000237917,-0.000242673,-0.000247667,-0.000254591,-0.000262452,-0.000269875,-0.000277455,-0.000284988,-0.000291136,-0.000295416,-0.00029794,-0.000298698,-0.000297826,-0.000295244,-0.000290768,-0.000285138,-0.000279972,-0.000276858,-0.000276028,-0.000276598,-0.000277865,-0.000279137,-0.000279936,-0.000280064,-0.000278577,-0.000275005,-0.000270786,-0.000267932,-0.000266576,-0.000264819,-0.000262002,-0.000259391,-0.000256936,-0.000253602,-0.000249384,-0.00024551,-0.000244228,-0.000245656,-0.000247449,-0.000248609,-0.000249968,-0.000251214,-0.000250082,-0.000245649,-0.000239689,-0.000234863,-0.000232251,-0.000231222,-0.000232047,-0.000235194,-0.000239582,-0.000242203,-0.000240744,-0.000238025,-0.000238193,-0.00024089,-0.000243418,-0.000245527,-0.000248734,-0.000252338,-0.000254634,-0.00025532,-0.000254362,-0.000251907,-0.00024937,-0.000248259,-0.000248526,-0.00024982,-0.000251901,-0.000253658,-0.000254365,-0.000254442,-0.000254452,-0.000253855,-0.000251466,-0.000247503,-0.000243474,-0.000240379,-0.000238432,-0.000237182,-0.000235572,-0.000233441,-0.00023209,-0.000232067,-0.000232147,-0.000231537,-0.000230926,-0.000230689,-0.000229554,-0.000226332,-0.000222095,-0.000218775,-0.000216401,-0.000213754,-0.00021077,-0.000207518,-0.00020311,-0.000197218,-0.000190105,-0.000182253,-0.000174276,-0.000166567,-0.000160073,-0.000156653,-0.000157213,-0.000160946,-0.000166214,-0.000170719,-0.0001729,-0.000172811,-0.000170833,-0.000168281,-0.000167093,-0.000167726,-0.000169244,-0.00017038,-0.000171144,-0.000172583,-0.000175323,-0.000179815,-0.00018605,-0.000193516,-0.000202063,-0.000211459,-0.000220475,-0.000227669,-0.000232352,-0.000233795,-0.0002312,-0.00022472,-0.000216142,-0.000208211,-0.000203073,-0.000201912,-0.000204112,-0.000208168,-0.000213586,-0.000219553,-0.000225036,-0.000230419,-0.000236252,-0.000241275,-0.000243113,-0.000241654,-0.000239177,-0.000237768,-0.000238083,-0.000238237,-0.000236251,-0.0002346,-0.000236734,-0.000240456,-0.00024226,-0.000243414,-0.00024643,-0.0002498,-0.00025133,-0.000250904,-0.000250269,-0.00025178,-0.000250511,-0.000238835,-0.000220023,-0.000205531,-0.000198132,-0.000190208,-0.00017938,-0.000165394,-0.000146213,-0.000128994,-0.000121384,-0.000113908,-8.9e-05,-4.32e-05,1.54e-05,8.47e-05,0.00016269,0.000246732,0.000343318,0.000456777,0.000577413,0.000696505,0.000812001,0.000911147,0.000981278,0.001027969,0.001055235,0.001050888,0.001004291,0.000922158,0.000820708,0.000708071,0.000585307,0.000457452,0.000332451,0.00021763,0.000115533,1.89e-05,-7.85e-05,-0.000169892,-0.000246173,-0.000308987,-0.000365133,-0.000417741,-0.000464018,-0.000500522,-0.000528318,-0.000549207,-0.000562796,-0.000570331,-0.000575116,-0.000578383,-0.000579458,-0.000578036,-0.000575369,-0.000573365,-0.000571787,-0.000568632,-0.000562269,-0.000551101,-0.000534204,-0.000512138,-0.000485708,-0.000455123,-0.000421421,-0.000387304,-0.000355005,-0.000325181,-0.000298197,-0.000274547,-0.000254258,-0.000237793,-0.000225845,-0.000218305,-0.00021508,-0.000216324,-0.000221134,-0.000227987,-0.000236016,-0.000244978,-0.000254636,-0.00026469,-0.000275061,-0.000285559,-0.00029599,-0.000306577,-0.000317083,-0.000326672,-0.00033457,-0.000340241,-0.000343414,-0.000344004,-0.000342525,-0.000340676,-0.000340653,-0.000344012,-0.000352487,-0.0003677,-0.000389552,-0.000416702,-0.000447887,-0.000482219,-0.000518634,-0.00055499,-0.000588331,-0.000616164,-0.000636469,-0.000647961,-0.000650756,-0.000645164,-0.000631517,-0.000610589,-0.000582482,-0.00054791,-0.000510144,-0.000473078,-0.000438632,-0.000406326,-0.000374344,-0.000341038,-0.00030546,-0.000266292,-0.000221606,-0.000169821,-0.000110484,-4.49e-05,2.5e-05,9.82e-05,0.000172854,0.00024466,0.000308206,0.000357669,0.000385564,0.000383389,0.000345711,0.000274007,0.000178792,7.75e-05,-1.38e-05,-8.68e-05,-0.000137531,-0.000164923,-0.000171421,-0.000164011,-0.000150417,-0.000135433,-0.000123263,-0.000120916,-0.000136263,-0.000170491,-0.000217066,-0.000267052,-0.000314451,-0.000355884,-0.000384614,-0.000390656,-0.000367714,-0.000315573,-0.000238654,-0.00014539,-4.92e-05,3.48e-05,9.78e-05,0.000141939,0.000176135,0.000208229,0.000243369,0.000284173,0.000331619,0.000384182,0.000437509,0.0004865,0.000525622,0.000550185,0.00055802,0.000550444,0.000532715,0.000510796,0.000489471,0.00047444,0.000468138,0.000461707,0.000445398,0.000419462
