"time","Ca43","Li7_ppm","B11_ppm","Mg24_ppm","Si29_ppm","Mn55_ppm","Fe56_ppm","Co59_ppm","Ni60_ppm","Cu63_ppm","Cu65_ppm","Zn66_ppm","Rb85_ppm","Sr86_ppm","Sr87_ppm","Sr88_ppm","Cd111_ppm","Ba138_ppm","Ce140_ppm","Pb206_ppm","Pb207_ppm","Pb208_ppm","Th232_ppm","PbTotal_ppm","specimen","transect","grade"
6.87041997909546,1193260.15984175,4.33060702146306,5.96828117334209,393.668427456922,6006.68673877846,4.56158074333282,112.588294026107,0.214440207633221,1.43679414368038,2.04458260918464,3.42098553050578,3.69531069554292,0.00567884973548897,2045.66809331427,1128.51920722803,2573.33068025118,0.770860679506258,4.77476560604,0.0619839941184344,0.533828631557412,0.783348244265098,0.664684598227166,-0.00397112489756358,0.657766470591498,"oto01","1",1
7.13461995124817,1307814.05216103,2.64907903194762,8.75189836108406,358.884626577765,-16819.9144761334,-1.1973172346858,-125.553012062695,0.385202018461813,1.31057394598852,1.30957592188995,1.51236041952125,7.83248853918101,0.0971340328062426,1844.14599051251,715.257063318171,1908.81810585378,-0.115270321400264,4.13940951645552,-0.00521905653232461,0.827553119642605,0.334516452092158,0.0493089125605668,-0.0036222721882657,0.305033385533693,"oto01","1",1
7.39891004562378,1566842.25329697,1.58982427479223,5.72450786060404,309.704045612901,661.315559251014,-1.55324511308201,-29.0980342215201,0.440002774127893,1.09338178654352,1.02635814932193,1.11266711318864,3.87556294911173,0.0810367014508757,1214.27484256485,537.220193470131,1640.58018842728,-0.0961672548217323,2.80503336267588,-0.00435414212652516,0.548322881712058,0.279079699822577,0.37304908472539,-0.00302198247058362,0.395093110242783,"oto01","1",1
7.66308999061584,2150461.09631195,1.27049284454361,2.73288770070385,177.124678581965,-6615.10227320002,3.69256544532157,-34.4822096626927,0.176406358060769,1.29305738145925,0.313576180606077,0.484561371789875,2.24111573788752,0.0310755874499975,1110.35607405372,449.068938935417,1292.41917884431,-0.318592851836229,1.75393951349568,-0.00317035833785406,0.192336679937706,0.087784107983105,0.319962164178293,-0.00220038133045856,0.23648728489144,"oto01","1",1
7.92735004425049,1314570.69356788,3.74490851345654,12.4680325280881,343.873945685733,-3807.29353661932,3.90583286785714,50.5313218119778,0.241749104269621,1.9142043232811,0.829253625761698,0.971322242139624,3.03623906627822,0.142374112460544,1366.9417347876,658.114512273192,1889.92596118301,-0.521765948865724,5.96556683856412,-0.00519217046993317,0.484425248857411,0.332793564546969,0.0490549578008609,-0.0036036184479998,0.219625121473295,"oto01","1",1
8.19151997566223,1726994.76646054,3.27058594941727,4.4772787284081,236.288021554952,2683.95247581566,-0.255234435984651,-14.5630009043728,0.327367891919207,1.14652712941,0.69081673911868,0.468439605147028,1.82723133642856,0.108298275632105,1218.96634868614,552.880909785485,1322.09503679983,0.222430019046591,1.49899514819801,-0.00394947818781346,0.239603869709616,0.540717835035721,0.0373141766467264,-0.00274113129397768,0.19894590548279,"oto01","1",1
8.45573997497559,1225023.28782068,3.22562901425405,12.8776615139834,320.087136039849,-6671.50529484296,6.7416648155623,-46.5903363150428,0.461932217496174,1.39942694784658,0.466497074869981,0.47021539482612,5.30060301326969,0.054625116624653,1682.03266321683,778.822882181837,2435.12819005225,-0.123084468792035,3.86680214647643,0.0273995126586323,0.15623936394589,0.56008811207804,0.392505242712217,-0.00386787610694263,0.370707498681596,"oto01","1",1
8.71995997428894,1243633.29456274,1.80881168275537,7.21687636275174,372.823760932088,-3464.50134418345,-5.69753525865054,44.8718578860953,0.654422169238942,0.948223947606497,0.542934961706631,1.02689918941623,4.21547143390289,-0.0912648219118946,1543.0356704588,568.247498235732,1700.63157162787,-0.121236808172088,2.5828008129926,-0.00548926630200921,0.691271945788895,0.151992622857995,0.637685364850704,-0.00380982421087151,0.542415085123828,"oto01","1",1
8.98421001434326,1900854.02624621,3.6097238830099,1.14362671845636,281.987157282351,5399.75801006393,0.601358804523125,-110.372094363605,0.297365601861133,0.197987535222677,0.845648242900262,0.548320137866209,5.16476906148903,0.0983730762370495,1349.42462919527,531.482034451455,1354.64616957774,-0.360510963208831,1.50996955394537,-0.00358752738887491,0.217645579856725,0.0993352981806872,0.0885885131505434,-0.00248992417526106,0.122786754068489,"oto01","1",1
9.24842000007629,1310915.03047856,5.23893633058468,-1.16853320496544,356.433348710793,-5080.92552504054,0.872775382815909,-22.9415452324087,0.384289521003057,0.491368131813525,0.989871628807632,0.617556916185343,4.95225476322716,0.00516770297664742,1794.99161058021,665.926046583514,1739.62582207303,0.29323406222131,1.76087417172486,0.0255991142205789,0.315877778969198,0.144169308870622,0.446096600987539,-0.00361372776784699,0.346350050457199,"oto01","1",1
9.51255989074707,1262380.08597253,3.70764958336201,7.10939512453314,328.79746704658,2202.01750246094,3.62185935629526,-83.4326869270801,0.349997512316073,0.510317493761498,0.617046216852024,0.271146984246832,-0.139545918452267,-0.0422694539099484,1663.94101700536,626.780593397372,1623.74429004648,0.304542070870604,3.17052229110928,-0.00540751884079189,0.504518278719679,-0.0471370257955951,0.133530534796499,-0.00375309412744241,0.185078648655576,"oto01","1",1
9.77681994438171,1981651.69054495,1.74657070365177,6.70493504001193,254.749220388552,4900.95318430899,0.396318968651402,31.0136151910651,0.253966298844037,1.67311026021015,0.392646515589458,0.879310799259929,1.80204268486591,-0.0875219357632154,1259.23995090583,464.94673561265,1356.92335216895,-0.0759974553663092,1.07834642685169,-0.00344098196647837,0.433328964405924,-0.029994850173435,0.242351985018674,-0.00238821857267965,0.228893637621415,"oto01","1",1
10.0409200191498,1848191.26290864,3.05569781690906,6.85599339106147,237.516349140538,-12771.2949934497,2.25017911678675,-28.6373439124519,0.171805711610092,1.36038222057576,0.196701474118465,0.563977466209667,3.50960513222711,0.0036623211642798,1159.46546328413,394.484397564297,1163.57093239181,-0.0814966438937162,1.91932410550862,-0.003689979509405,1.06676376651446,0.102172257627349,0.372405294952885,-0.00256103721133916,0.483787183792749,"oto01","1",1
10.3050398826599,1112169.5243825,5.08491277393955,6.96098086565563,420.230532353914,-3248.30797350157,-2.51231406587293,-168.308689623028,0.620506935747195,1.06069817913459,0.23399081787397,1.35891236836648,7.34001936706034,-0.0479981803430186,1772.74140671554,671.083751120751,2200.79729011042,0.345814797893805,3.90498690076375,-0.00614040436927796,0.572896744021022,0.393572219260693,0.245243238534083,-0.00426176173444036,0.358882683175879,"oto01","1",1
10.5692200660706,1335860.17133057,2.04748766505016,5.792016977505,354.863677007677,36.7480020625164,4.30313378715629,-102.090688048018,0.330690903618836,0.482167254628301,0.272357622053577,1.13070851405601,7.97934826333861,-0.0849461562600205,1790.67135509507,615.756447838883,1702.59703974477,-0.1128419225851,1.85466678963173,-0.00510924203171438,0.810144708552388,0.327479489822894,0.98303583017391,-0.00354608326752602,0.793619808773141,"oto01","1",1
10.833349943161,1380658.12355434,5.67782834238952,11.8696801791911,318.549551290152,393.149720404672,0.976718893619453,-140.816794001172,0.409717802297442,0.853857886076279,0.71431475786744,0.417064628250612,1.98500755124183,0.091995596915595,1465.27516926831,588.23532062539,1854.68496954257,-0.496716275026315,2.93905926714542,-0.00494300820970436,0.783786227411651,0.3168247682063,0.348141852527353,-0.00343071028216815,0.448528586993517,"oto01","1",1
11.0975298881531,1542314.39092057,2.087805710518,10.2219141088781,298.320818400649,3457.94593025596,-0.650367287316145,-52.3503504950339,0.24613917668014,1.80419798918023,0.639258584435259,0.373241831927152,-1.19443887964652,0.0823292244027949,1292.15090179943,452.740525210889,1462.54927749424,-0.444523528087008,2.33751666712035,-0.00442362780406651,0.268370383181442,-0.0385605931252836,0.176676663570441,-0.00307023452392073,0.15140419068389,"oto01","1",1
11.3616700172424,1594255.74654118,1.71484103770262,3.68867654042797,307.082995419392,4929.29385436078,0.268433679287523,5.75509160164766,0.160374540283008,0.571506513415188,0.228108225218721,0.654026164975491,1.97968005721345,0.00424707509321156,1585.48711333596,621.620691768422,1553.85305988417,-0.430005569867796,2.544343787036,-0.00427916262927609,0.119968982730225,0.118486440651063,0.170906894263596,-0.00296996973224192,0.146459471493814,"oto01","1",1
11.6259899139404,1187443.43512218,3.32809470099044,1.83294861799038,369.226901192954,-2968.32662083339,2.04101429347872,60.0892191001969,0.476601108404557,1.66918006333201,0.306509722601596,0.288314705128397,2.30902605947273,0.157666991620143,1679.91910676708,807.056081188922,2188.20335539974,-0.57779902799233,3.51397113905308,-0.00574992795580283,-0.0264267240307414,0.159210765243324,0.22964837320416,-0.00399076260411586,0.150377660801046,"oto01","1",1
11.8902099132538,1344963.05382381,2.03360370592061,4.37434086631877,475.378354018375,11935.3644826177,2.29571840619597,56.679300947769,0.328447090713363,1.27428127637725,0.656189902860065,1.81792908944536,5.4461359359049,0.0497402349811296,1468.17135984833,537.739834624031,1550.90940969163,0.68365254285194,3.39509857966167,-0.00507459137039346,0.473458038399017,0.510008485936447,0.357410000853279,-0.0035220444024816,0.419499086683025,"oto01","1",1
12.1545498371124,1268119.74900286,3.30744201746112,7.0771786140574,366.431189408541,473.961179532777,3.00013487793949,-14.6881034711564,0.348410137310353,1.56266873181755,0.450597994334525,0.454189704573255,1.83301146355886,0.100184632869639,1452.01941844621,715.899433556194,1794.45375566356,-0.540927872062844,3.55692449960869,0.0264659438830218,0.150916744534708,0.149051751304107,0.297064007975452,-0.00373611930345958,0.227700452484983,"oto01","1",1
12.41890001297,1190077.10358699,3.11639822721831,4.94549622663672,396.931342074962,-3718.5950528117,-2.51916770226338,-135.25489303715,0.371331965334281,1.89029214285595,0.741867642658964,1.07326747632053,5.10625961469984,-0.0448460551766344,1546.83958637712,688.148664201166,2038.59061830963,0.323100840506412,4.21809471334144,-0.00573718118681717,0.535277919599436,1.20322747210371,0.316608125026899,-0.0039819227927194,0.566911946761878,"oto01","1",1
12.683109998703,1909510.91884965,1.8127140666509,5.01860031833795,269.208603823845,8916.31463831031,-0.765793075935738,-88.0439822030184,0.13384427071646,1.03672647745881,0.787522627256553,0.668088034474398,4.05078983114471,0.129388173336337,1147.65367286813,409.018788067453,1122.60735808585,-0.0788735711987105,2.47795981914526,-0.00357128560815196,0.682822888425311,0.618964247572383,0.523776925135066,-0.00247867229483986,0.583557970443919,"oto01","1",1
12.9472999572754,1133351.17370107,1.55631901679224,7.37605174887921,355.632267839478,4376.63564639617,7.51487790469113,34.0907550494878,0.335258965361354,1.74911977623621,0.77912564405397,0.508381709599629,5.73057770035676,0.0590589789055633,1883.16883862563,780.981723148945,2345.54611301238,-0.133071874546863,3.18387737196529,-0.00602532168082449,0.562161820163595,-0.052522636845646,0.240647917635258,-0.0041819133159139,0.254869534073741,"oto01","1",1
13.2116098403931,1178558.71327148,3.35329189007588,4.46945950811542,474.273503619249,6747.58163827263,-6.57676347061703,-65.0881816867822,0.269741507925046,0.319724177480135,0.396890059915537,1.48045007378829,4.44881641875691,-0.0963212645859249,1738.5268536733,722.407871265293,1897.92174167251,0.326267967186843,3.30095812891032,-0.00579345408862175,-0.0266268340839041,0.582257004557046,-0.0335882247309322,-0.00402098652349298,0.10474425563566,"oto01","1",1
13.4758498668671,1587041.66937165,2.64121028888108,4.87314224082964,310.550361945916,-2164.25836975546,1.62252373383596,50.5868583784448,0.200146021695948,0.742554529767935,0.359830570695878,0.657008548018946,4.08838955380916,0.155742176540095,1258.84165535268,520.528183812287,1464.47357766081,-0.0949382677532517,2.80487499049916,-0.00429869900354527,0.40106844184217,-0.0374717219238899,0.237225432331441,-0.00298354329305271,0.21653938458933,"oto01","1",1
13.740180015564,1556742.54525963,3.00491018349377,6.55549261516718,309.191672788288,-10953.3662090003,-1.82591234904328,-29.2847380289596,0.403065359217148,1.44397065782056,0.23361940755419,0.669827799742653,5.50614877821388,0.120172677078599,1304.83046111695,498.546586075323,1715.98990228738,-0.440389343794361,3.51222686282855,-0.00438257622379465,0.122868686843969,0.759575800383762,0.0414063930780476,0.0329523596515833,0.220764922808338,"oto01","1",1
14.0043299198151,1183493.92542941,2.92835315352564,10.7192145606467,429.890362417561,13912.7986796784,-0.632126036858249,9.8322814808498,0.216218112088095,1.44870569188875,1.44760189302262,0.881762642887839,6.54374085111283,0.107371947149592,1573.27046822139,747.20310715337,1739.38714251243,-0.579728615519684,5.53048246707524,0.0283647500051933,0.161744756366573,1.63004744628635,0.670214851648087,-0.00400418491647331,0.75639924431941,"oto01","1",1
14.2685399055481,1443609.53154617,1.7259575549855,2.79073833035255,325.855175424204,2488.09344192034,4.15835319920886,-63.8651241180028,0.263014736978105,0.6313068492879,0.89864926594763,0.398831601927201,5.93877513412547,0.129615541549342,1616.91175145836,587.509175931605,1697.75826377669,-0.474992666812471,3.35803717247391,0.0791755239798781,0.286773773001167,0.475071704079318,0.404994762692743,0.0355417584039236,0.390763391327961,"oto01","1",1
14.5328099727631,1286017.10063129,2.6942109423283,6.49784399799462,347.052246554626,-7144.78161657219,0.889733083023314,-26.5648856078084,0.295341664478346,0.91688825182787,0.928415046840859,0.266150590727624,5.37228370980598,0.0052681027817579,1712.65256054456,623.800960912857,1908.28014184242,0.298922574969333,2.98042112266452,-0.00530794326153607,0.495231677624244,0.726710127741235,0.211996759084722,-0.00368402541202634,0.395937334601587,"oto01","1",1
14.7970099449158,1334639.53145409,0.956706361286761,8.11263465187017,434.369297392005,1930.13333464264,1.01050158838228,-197.142816424554,0.284551226631483,2.28615768172614,0.505811707438758,1.30682290426351,4.86373831912603,0.050126356998112,1343.18880618161,614.26060907206,1909.61863152686,-0.11294373456438,2.95613508295486,-0.00511401858302449,0.310256384030472,0.700160180438355,0.204251583196611,-0.00354943237798424,0.340184393136789,"oto01","1",1
15.0612699985504,1249475.01049979,2.38410235588136,7.67787901547591,365.726781579596,-4308.56052621334,-2.19449630247511,117.313643863193,0.403248048462497,1.37197118267248,0.789546601447096,0.64802320669371,5.86346176509264,-0.0427078129701076,1909.41566627874,790.353450354257,1913.12300883393,-0.120665539170352,3.02266759188185,-0.00546366798927971,1.22294440881956,0.748030958228444,0.218216512362059,0.0410811543814853,0.583999149200906,"oto01","1",1
15.3255598545074,1490373.03529995,4.44355870866724,5.19006790292382,283.63205379261,-8734.32168570284,-0.638805321818638,0.123602194245284,0.213161976330224,1.32904129300418,0.800786621834178,1.48338052632713,2.95652196669929,0.0852065576047859,1369.3257519823,457.365464620328,1408.26392935281,-0.101111344865176,3.8205769458813,-0.00457827436038397,0.128355531521505,0.293448854448681,0.182854353447099,-0.00317759789262288,0.193659913627933,"oto01","1",1
15.589910030365,1339300.76531472,3.85719994564692,6.23860944021202,380.521741516985,3571.59040365362,2.11449265166773,-58.4731522831805,0.376125400455677,1.67908270681601,0.426583320933917,0.429983713851961,9.51439941359786,0.0948453845355792,1621.85525645801,585.888734579979,1708.89532895247,0.28699489017812,4.2106101811222,-0.0050961858979843,0.309174882700441,0.32664501194656,0.281235999513758,-0.00353706177812446,0.297854890618726,"oto01","1",1
15.8541898727417,1183274.54315423,0.874006896599445,8.63132235670229,382.820988690274,-11622.4174232229,3.90808840616345,41.6332588347947,0.32106978920607,2.35343786882168,0.658437936206354,0.881929295731051,1.26022903122232,0.00572702487472458,1703.36110657684,856.608569699166,2243.25960072126,-0.579832655435623,4.86311172006738,0.0283702451225121,0.726677512379011,1.00010452148,0.846303943883014,-0.00400497740208841,0.849721345358785,"oto01","1",1
16.1183998584747,1330312.71985811,3.70061527919396,7.21000376164646,415.853875829486,-12102.6312466342,3.09025837792837,29.0275770977813,0.099095959404561,0.685229555995634,1.28738199672049,0.432897579715284,4.25302011585023,0.0954881347054696,1466.31422878702,621.620199809936,1917.34452241369,-0.113311611665845,4.70612361005912,0.0252254929080698,0.311270732860911,0.51565350017872,0.283142465669236,-0.00356104041316717,0.341296590014744,"oto01","1",1
16.3825700283051,1429408.10811954,1.23313224854832,5.41203881982314,389.805565200067,10436.1253184713,3.34071533170004,-103.962806818726,0.222278229823406,1.19880726293265,0.762463293659146,0.89308984712347,8.03839435567974,0.172964286008868,1379.73560540563,599.63872335065,1571.46292209523,0.268853935691712,5.48520329288523,-0.00477408503557113,-0.0219418976574755,-0.0416158320452916,0.481821707201221,-0.00331351020357345,0.240490872746624,"oto01","1",1
16.6466200351715,1214683.57828334,2.25245745142103,6.88068795694579,476.966769946751,-11320.9523167229,1.9108744154249,-191.080283932779,0.414835635330012,0.750665223843767,1.23943493805513,0.474236929273342,8.77742252719498,-0.0439350616546822,1894.97182464184,851.539944723125,2387.34473234014,-0.124131912447712,6.08577840880826,-0.00562069214125259,0.157580849176193,0.769530896789943,0.481570055724348,-0.00390111021124652,0.464648516121589,"oto01","1",1
16.9108698368073,1238014.47498783,2.4062627853986,11.2444384202875,451.959939480784,-640.868070088238,5.71951780911862,-97.6230170356613,0.40699383182578,1.60079879003757,1.13217905319187,1.97547775207738,11.6420507221014,0.102629324623289,1574.95101246561,732.065765754808,1924.16345608267,0.310546282363817,6.74661185705243,-0.0055144455872129,0.334550483575346,0.152691614672594,0.304318535516138,-0.00382737077637414,0.277781202809203,"oto01","1",1
17.1750299930573,1795528.49957107,1.11642629142353,4.9940066283995,268.423693095922,4537.24374241785,2.17397975040519,-81.8078090074765,0.176857649330773,0.507310482024711,0.895371173697776,0.710594838901504,4.77218556499727,0.204547485397555,1322.5190648406,494.52936679277,1328.74561810566,-0.083889924821698,4.8045161517705,0.0186757730737072,0.478363554290485,0.3817662728488,0.441281615933617,-0.0026364337779256,0.436688428779419,"oto01","1",1
17.4392700195313,1071431.55102075,1.41960333193695,6.64956602572902,533.200188063895,-20761.4420091161,1.92841366522691,-137.292957336163,0.470499183962025,1.60077949062946,1.30883871226626,0.756096264408641,10.7336336157586,0.118643120320544,1858.53914962005,780.944081509658,2636.8972251953,0.359001434614205,8.96025241190994,-0.00637490144260439,0.594781592070068,0.640697856670337,1.42096653466943,-0.00442458634359836,1.04170092836571,"oto01","1",1
17.7034800052643,1124721.5104687,2.64948280529501,9.63203310039041,590.139963530087,612.1159970271,0.42637311050431,-119.854495980113,0.503275414467518,1.28675312888021,1.24661401207693,1.9672872003441,12.8186674171116,0.0595141965255499,1870.57018849623,739.113665425696,2032.87112659211,-0.134094126921677,7.52905344159335,-0.00607183062750923,1.16093102115108,0.389181098279388,1.07567624049776,-0.00421423847381201,0.943146335197627,"oto01","1",1
17.9675798416138,1667839.33367039,0.910798209834459,1.30380762179668,325.817562837005,-3799.68816028362,-2.46960087967548,36.3682972898303,0.376157635791205,1.02703657125531,0.591042367340978,1.04515180784195,8.38500242284504,0.148181217813997,1172.17815787057,553.606064628375,1697.02619874118,0.550988412077769,4.46232932687534,0.0443081169454495,0.248135531985865,0.708880037863782,0.350428190925994,-0.00283875674838825,0.404156630199215,"oto01","1",1
18.2317099571228,1357184.12496257,2.19439413388313,6.15622324955842,419.549360756571,-13552.9896148273,2.57656167858659,-0.466678225541881,0.325484628776741,2.64221753294931,0.726712876631001,0.940753739149877,10.6167918720554,0.182195412795746,1574.52851960002,645.205674106127,1697.14112199562,0.677463847489799,8.73388902653517,-0.00502890005752522,-0.023113102638368,0.139247421761564,0.660887496980867,-0.00349038217938677,0.375132452662724,"oto01","1",1
18.4958798885345,1326874.47346251,1.32871138277417,3.50274968375441,450.759329788067,-181.90711389635,2.94406126812887,-67.0310915704059,0.239505203707262,1.69486085048826,1.05614102702071,0.610116691034348,0.495339259754432,-0.0402096274297124,1516.89669959036,632.939533302027,1867.30989043656,0.289687417870232,7.65618070150231,-0.0051441125489595,0.647815719804823,0.142437645214308,0.676028761007145,-0.00357034923942914,0.549849425071215,"oto01","1",1
18.7600200176239,1300839.52279757,1.9159863740917,1.67273403305319,396.355466150397,4972.65635982025,4.30136322897049,100.718563354364,0.434937762317096,102.886935241365,0.758283211590123,0.622363828254236,16.5255722272972,0.0514330240021181,1922.86948385074,669.34219664074,2013.09152027414,0.706892775193439,8.50500768832099,-0.00524737609752674,0.660820314976465,1.29156125464088,0.609594696638998,-0.00364202304501249,0.772710928877394,"oto01","1",1
19.0241899490356,1300396.82038723,1.72971018587743,3.09903566473233,473.390224974274,1109.95694307042,-1.71524749772522,-57.0807343356981,0.482759923511211,1.52378420338673,0.758542430961542,1.34134555394577,4.99200906250962,0.0514506107172016,1461.88598880901,609.649743536424,1942.67562302491,-0.527449105262785,9.20338408390123,-0.00524917355747903,0.31845796806388,0.527559830429678,0.449740737342884,-0.00364327277649017,0.433936885438161,"oto01","1",1
19.2883298397064,1249144.27789654,1.80090078926807,9.65942877024968,531.072090937179,8435.05115595541,1.28464308112968,-22.7668020117267,0.40335801409712,0.301604921376485,0.540541127833746,0.274033194587804,4.5301035749797,0.10171254539274,1705.70802292915,651.287244883372,2180.22346270512,0.307768245456263,10.3968789052681,-0.0054652155066006,0.509908843934539,0.151328982085756,0.301602863607489,-0.00379322240885081,0.319425562804097,"oto01","1",1
19.5525798797607,1223812.90043762,1.83829644922277,8.34461344232766,510.247181533056,-22773.8396788071,-0.611242248736531,108.413069176547,0.411733380420134,1.18224228310229,0.975760284784106,0.85262919836144,18.2502394365808,-0.0436065263963063,1745.62375896496,844.037419974317,2323.11637681021,1.18888902849468,11.999076471382,-0.00557869946451516,0.156404232972397,0.56067873369333,0.137759751500292,-0.00387199012385636,0.235979161816487,"oto01","1",1
19.8168799877167,1256532.62531718,2.75769533011403,6.15897522377694,565.17790642282,12338.7882308973,4.65719414677888,-41.5064133347939,0.400979402889552,0.512708079790287,0.7025199511717,1.38831526871555,5.83018902746149,0.340420966616678,2084.66062956407,716.112664582167,2262.43969583559,0.305952485288801,14.0716540411314,-0.00543299416587261,0.50690297104191,0.348235186668146,0.465490769729448,-0.0037708631662562,0.449133441788678,"oto01","1",1
20.081209897995,1420581.84462162,1.5829851331116,4.1409688850112,508.35612718291,7332.58860230882,0.805234859300914,53.0725862883874,0.354549291074598,1.58276303632977,0.986287943525952,0.5697636848027,6.91493591805883,-0.0375501847851304,1506.16040319813,640.004375332907,1940.70174480996,-0.106090434205138,9.49691354365589,-0.00480390136019487,0.448208256137656,0.657707042915837,0.411591214822039,-0.00333423246346482,0.474696626288677,"oto01","1",1
20.3454999923706,1648361.32531266,2.24803637326167,3.56741912846655,370.579489899852,-4760.49112853754,3.48550704349248,1.59899571974979,0.418201098595888,1.36354002923201,0.535137258646968,0.632517759018534,6.20984553084933,0.186395067604791,1278.29795660633,520.643895148333,1684.41333251752,-0.415845083624322,9.34718756286338,-0.00413853248817904,0.656234231856016,0.717285648885494,0.228389039277861,-0.00287242317974381,0.442360861362301,"oto01","1",1
20.609719991684,1716173.65070624,0.743560595067144,2.70642383207651,519.505000312421,7978.07516307854,-0.554574734191144,-152.252310508495,0.293345939399144,2.08829104518784,0.51394498458053,0.743529870847532,6.20659374140178,0.073971430727483,1344.45655660733,636.025937963274,1610.54498362449,0.847038062417706,8.4501725903706,-0.00397464287482249,0.111433132949072,0.544172830708454,0.340541847681925,-0.00275867428348028,0.328575718018351,"oto01","1",1
20.8737900257111,1864062.23268161,1.33589814903157,6.13516944970181,558.313122490818,-3710.28580342384,1.18899374751323,33.8455857666523,0.236797468430271,1.20543381446983,0.139415872910103,0.058209488022442,1.46905322127646,0.164782069653084,1333.37439119441,485.081022928672,1513.34941186246,-0.0807982449305822,7.96025092114312,-0.0036586632330434,0.102574364871349,0.101306718169481,0.425033208145968,-0.00253936429461333,0.272918383748851,"oto01","1",1
21.1382598876953,1669282.1491043,1.34660713203479,4.63261745438201,454.399258170841,-11656.7113757442,3.56429748080104,43.1885737298555,0.264491758413393,0.385644605137992,0.652651252934904,0.764464868553607,3.38725881472314,0.256055169280913,1365.02099791456,572.883621868379,1945.0244591753,-0.410620245927405,10.5504690958602,0.0200917826985788,0.11457091578386,0.2619341056692,0.225521130508715,-0.00283635537319855,0.205855075520564,"oto01","1",1
21.4024999141693,1101482.56420965,1.82237820626526,6.46759869306446,776.049485295172,3527.49754330009,4.47825807543406,-176.606285396835,0.176065496680279,1.0710444178283,0.990257341903797,0.523148877143015,5.89652626974786,0.170017482474105,2054.54280168876,832.553057797593,2269.50073975169,-0.136931299010194,17.3957021416935,-0.0062004756675772,1.18553448848082,0.397428870053062,0.720320533040637,-0.00430356235118659,0.762884242879112,"oto01","1",1
21.6667399406433,2110062.26416259,1.41002767403458,2.20030108231856,327.833328135776,-9519.79164341758,1.41338170583344,-71.9092712255811,0.209140744309302,0.178325466075294,0.368714889250861,0.383251454320596,3.46751235136673,0.0886039732123258,1141.3446766878,414.033603340606,1171.65821044243,0.435297832201063,7.21794557777791,-0.00323135660632154,0.196041403434759,0.207118769973303,0.178326003774082,-0.00224278808427261,0.188863634837075,"oto01","1",1
21.9308898448944,1319003.16249142,1.15239983435769,11.0207633259511,564.294083900882,-16809.3455771942,-1.03213454691462,-30.2352688804622,0.38193435662516,2.31336474159132,0.66915264799175,1.32237522095073,4.92126198990391,0.187486029895836,1609.65463257166,645.623602593816,2239.52437505221,-0.519981726913391,14.304125493089,-0.00517497419953338,0.482831025000265,0.708512891852763,0.127790683713932,-0.003591797136088,0.344242864234258,"oto01","1",1
22.1951098442078,1329869.02469952,0.777409440087154,1.17145488477425,633.810104403563,2068.14757895624,-3.63697268308151,-82.2467191005239,0.332191488439359,0.685465532115785,0.273593078364903,0.608742534265957,0.494204920773231,-0.085331800370847,1673.56928612319,657.635890988498,1995.59272468041,-0.113347090819501,10.2742131018124,0.0252345737375716,-0.0235897395086078,0.328980542132525,0.361499710754053,-0.0035623712911037,0.25854848648661,"oto01","1",1
22.4592599868774,1232618.2671362,0.44446347299609,-2.2458982884292,556.105104175414,-17566.8122610967,0.886913084080631,-53.5916853035156,0.358482399812897,0.522688459266917,0.211058531835803,0.656920747280554,10.0016254727213,-0.140875910134563,1870.77512394179,830.481703612218,2215.67873219243,0.311903919887691,13.840738820115,-0.00553879045819526,0.336030244273921,0.758324057254134,0.221219437522609,-0.00384431587659955,0.368444467190445,"oto01","1",1
22.7235698699951,1739980.10536569,-0.104208522720651,4.08905624590467,387.412538674094,-5827.16514152038,-3.54073926414402,-58.1222841071276,0.218119853898025,0.677152706595805,0.447311639116664,0.599141402224629,0.138157254318475,0.245629070285769,1199.42388133518,516.310752837708,1608.29593901799,-0.0865722916762706,12.9484899257348,-0.00392017647006346,0.109906461820863,-0.0341725993976642,0.395645424972404,-0.00272088387610593,0.229126860470458,"oto01","1",1
22.9878299236298,1348517.10545731,1.12711226432321,3.44642209932425,593.519759023239,1565.625602769,5.55325442881288,-15.626721792318,0.281618465235499,0.477638382711419,0.500597946530178,0.253783630735415,2.03224091726307,0.227959255507649,1873.67757654514,660.468789752746,1836.68540511494,0.681818882237574,11.0541827446166,-0.00506141366022812,0.307068742591783,0.508692224747238,0.433656467383187,-0.00351298650803125,0.418417716552902,"oto01","1",1
23.2519500255585,1134006.82411186,0.483246041586269,4.10056237517283,640.550269241785,-9387.1939940368,5.83949521388472,1.60526561556827,0.663224210674984,1.51216248869158,0.50407687564923,1.95114193562885,4.25614388206374,0.112075365235174,2021.6417488059,723.723228512502,2261.96479317586,1.28334337027451,16.1963699028899,-0.00602208535740676,1.15142936393159,0.385995701337439,0.607781948863242,-0.00417976452174725,0.692316442049527,"oto01","1",1
23.5161299705505,1646918.50987875,0.627405380232974,5.44579970952902,446.417597430569,29.7917621775793,0.725354751029873,-30.6508694298364,0.117619755118162,1.36474432470291,0.472647088507416,0.491281238594206,5.96222444332115,0.00411104536007755,1177.38324953717,556.183623583535,1590.54239138995,-0.416205576022768,13.9223954686381,-0.0041422214194734,0.521648077733141,0.265502757825107,0.228593753316505,-0.00287500416325592,0.308986678127993,"oto01","1",1
23.7804498672485,1670003.55682125,0.327790298498355,0.932318007960403,459.158043906152,-804.984794436793,5.61550551356814,42.1897217636995,0.412771408848999,0.705593136396328,0.341919437334532,0.624305362704449,6.87721522724891,0.0400377217536797,1586.7921725666,619.400616322337,1792.92123741144,-0.0902078396451584,10.7152905851359,-0.00408483506222655,0.381120854633487,0.113107695465155,0.163148758573027,-0.00283517553524293,0.205768772970798,"oto01","1",1
24.0446798801422,1212814.50134839,1.05315788121679,2.81390747384813,571.244785073479,-6882.78236471078,0.142262429202686,-140.107626241251,0.364355472274938,1.63418434229169,0.471219303780643,0.860391986164175,8.44671816263547,0.303140134058832,2094.54744416254,918.830212882512,2731.77291688814,0.317011266929039,12.8080578056838,0.0276780042132086,0.525245658008102,0.565793609112454,0.310674435729243,-0.00390732734558003,0.419933503607396,"oto01","1",1
24.3089199066162,1273420.12670094,1.76650954149976,8.50407775090312,897.215908040328,5376.65755032855,-4.24009294819381,-109.01788570135,0.298276968145366,1.34611520648811,0.611694573794949,0.452302426790906,7.71618204574869,0.0525443661405687,2128.49749654776,779.273207325684,2645.31357018736,-0.118385862529491,14.7734036943488,-0.00536082778106529,0.500173167145462,0.343611806592678,0.132380641135351,-0.00372081264153189,0.270045277955578,"oto01","1",1
24.5731499195099,1793364.27642021,0.711501461560054,-0.509230856673932,349.550580342457,-6381.64585582004,5.48522436575841,-17.208685151353,0.246153982655585,1.70015778478717,0.318349822925134,0.711462736467705,5.47425968110009,0.104284952067954,1685.44681080266,606.269777646263,1721.06911157251,-0.382144221062903,9.94514947771655,0.0186989367839836,0.354850121797084,0.520711863995822,0.209888198738574,-0.00263974793074149,0.314408418307286,"oto01","1",1
24.8374500274658,1701745.49636718,0.0361827105529095,2.00362285325305,453.791150792334,-7391.24701136265,1.7232416566573,-72.873364987725,0.259436428053934,1.63482367725525,0.274599673674313,0.338202725449786,4.30126455029065,0.10991216344394,1446.83356401455,604.016260591949,1824.65779641339,0.539972478173269,10.0499246048458,-0.00400848836781196,0.11238274057526,0.110993850398335,0.465675891246413,-0.00278219197271921,0.29901541605502,"oto01","1",1
25.1016499996185,1358406.85571619,2.37142464698771,4.7860245648712,530.319206432656,5124.85592793385,2.91323177750353,-79.3070952190845,0.325194587154359,1.45854227649473,0.649690714895003,1.11191429517654,7.53878385616658,0.137771101044479,1565.64200048114,806.579262135605,2226.3880627521,-0.11095799431605,10.4740837872234,-0.00502450480081217,0.632759396314532,-0.0437992980973962,0.966754126544858,-0.00348738576575262,0.658778344857811,"oto01","1",1
25.3659000396729,1591370.11567337,0.49669600445876,5.63638182366461,452.330618103301,-10003.1519104409,-0.790843069463757,-36.3442289159992,0.316409633377716,0.908531346878184,0.358856100775122,0.655229824722715,7.7412732078092,0.193088269337727,1816.4167087319,550.180714577206,1480.70724639261,-0.0946754384708306,7.94279204513606,-0.00428719144916853,0.120196608642479,0.274795591613479,0.563420011337676,-0.00297563639849602,0.389032731100007,"oto01","1",1
25.6302099227905,1371085.47607193,0.399457324452862,1.58682796860746,572.017339616172,-15364.181695924,-2.70751660956714,-93.4774515903228,0.322179339045121,1.2499628822512,0.416673010276889,0.931199958884822,5.64535777684617,0.13649368201247,1678.84389157512,610.469777981692,2069.43985441806,-0.109928873577975,11.6142134348132,-0.00497792347195755,0.789340128342761,0.137837377409834,0.19881938400106,-0.00345505893584139,0.331137726249137,"oto01","1",1
25.8943998813629,1951352.56643292,0.902690463298269,2.37964178125659,439.526863261873,-4480.91739331148,1.94768163512455,-81.5322531080438,0.194447515722279,0.466726472554393,0.239405671132886,0.653748476348667,5.24348314581138,0.0650394494631542,1211.49027598787,452.375334981646,1331.96317271438,-0.351142074133325,7.14041226891764,-0.00349475110322273,0.0979796609808126,-0.0304642598987735,0.24614522355164,-0.00242562552637831,0.147830849741316,"oto01","1",1
26.1585099697113,1723387.72787577,0.31761769788335,0.903380753050966,415.132725411667,-4199.12548519142,1.61256528409499,-20.2790454654479,0.328064519201598,1.14896533515333,0.451630237103279,0.333946854244341,1.10592885250853,0.0387949141634456,1284.43469683229,560.620906504637,1667.08667434256,0.533173948880754,9.89069024688069,-0.00395805977275855,0.240130982856211,-0.0345030029085654,0.218431464016423,-0.00274719894797195,0.167428487788049,"oto01","1",1
26.4226899147034,1281043.16819027,0.99691009380698,6.04090649175555,558.284027429487,-1662.39793031116,-0.543946494839086,-110.91720878367,0.296497764166658,2.17332346786547,0.932047788242819,0.814433168406811,4.09137628880431,0.0991735643564023,1760.07914427363,672.181411797256,2066.63353282227,1.1355890393731,11.4617397451458,-0.00532887884401725,0.323297144698743,0.341565022411863,0.4565750556678,-0.00369865538699367,0.397507841567973,"oto01","1",1
26.6868200302124,1352627.67321055,1.12369778664249,6.63406795043283,485.131171543604,6907.60020136402,6.89903103290784,-195.690813121671,0.418243616012372,1.06934672332677,0.0388874226654489,0.771209357573744,9.11140103767181,0.0494589503070669,1815.03069992086,611.518555037114,1773.31157297748,0.679732102842206,8.93084790581222,-0.00504606659576524,0.470807167440457,0.507152485508388,0.663152280991397,-0.00350236383532663,0.58011512349613,"oto01","1",1
26.9510500431061,1118935.18325045,1.35919194232357,5.2612504280611,476.310517466747,-12111.4161504239,-0.394427207629558,-40.7749620862851,0.450463141676467,1.05429086516671,0.696440334804205,0.932831443754319,10.6481906977795,0.167358265629549,2064.16794503665,1000.75801081359,2729.71313273513,1.30067182846266,13.6842374433205,-0.00610357320227002,0.768653667763322,0.613436909579191,0.429892669243706,-0.00423635844244275,0.553850938665275,"oto01","1",1
27.2153298854828,1126031.97826314,2.43052275638664,14.0144448424083,671.171082356191,-2253.34981127519,-2.57219565655062,-253.36398547782,0.502695760017397,3.18650788276406,0.692036351723549,1.13454682172921,6.50776375452192,0.112872652860869,2194.39475737858,750.520620719368,2352.8085073695,1.29244521393181,11.9899587668653,-0.00606498109431664,0.170039569408159,0.388747394906748,0.33470563143451,-0.00420957500913095,0.305518280830878,"oto01","1",1
27.4795999526978,1807792.43075927,1.91506537899386,1.88585471640768,374.686301102784,-4275.59827679347,0.208401710406792,-87.1149024390508,0.072868312639269,0.651703060265105,0.315805077571821,0.447472686696702,5.6606837182322,0.00374445872271825,1329.77368471137,526.98968029464,1477.66658680003,0.212453137127616,6.61500966069877,-0.00377288930912824,0.228897356600974,0.241831165777753,0.380783247908301,-0.00261868417941842,0.311900877471565,"oto01","1",1
27.7438399791718,1209626.69104511,0.854956004061115,5.37660260426102,477.115579543861,-10575.9931789485,-2.14027927851694,-140.470923883052,0.416583156585492,1.63851442884501,0.472467787358473,0.669452295445762,7.09035838621349,0.0553246044660592,1770.73189356191,654.225533194872,1921.60069605302,-0.124647606757331,11.3925247066172,-0.00564452577818844,0.526645332585034,-0.04920429331778,0.741802804110561,-0.00391775055608034,0.512203924126766,"oto01","1",1
28.0080699920654,1180313.24221188,2.11236752475395,6.03436188610632,589.168934459555,-2567.89110435886,-1.97700251781585,-114.174997864417,0.479502812228896,0.999289566571286,0.572173512587074,0.884166571905152,9.73937008802758,0.0567031045866121,1984.5742903671,796.911274462862,2292.68825040535,0.779285552644982,10.2868708449462,0.0284430986263034,0.728556912414579,0.370812855566267,0.583875666371726,-0.00401537236411447,0.571668996069078,"oto01","1",1
28.2721998691559,1253003.34358251,1.98945065399694,-0.236254768963631,519.269528793405,-11576.6977699143,-0.596969880623064,-41.6188661602092,0.501083516168909,2.00861410794102,0.373246135372739,1.57877295530099,3.1853263239441,0.00540746899496565,2777.61643484158,838.375487254028,2306.25080809481,0.733937948437724,11.0420845650125,-0.00544853630760392,0.330557549826347,-0.0474958558404811,0.549900556490924,-0.00378172276904816,0.362448095686998,"oto01","1",1
28.5364599227905,1279496.10642986,1.37812786326657,0.734704582815482,570.831299699675,-15014.312742106,3.8533969955419,-66.315888693947,0.345312558881276,2.59410345691552,0.446590919043994,1.36334329724606,3.44486342372642,0.0992942283648322,1857.19802806004,767.077732376812,2047.74732449592,-0.117820233292024,10.7685827363276,-0.00533538850949013,0.323693108553067,-0.0465095441499824,0.131753315630167,-0.00370319130269735,0.139539440835256,"oto01","1",1
28.8006899356842,1274966.47314278,1.38304053983794,5.10024883195116,514.979625494189,-98.1993369962005,-1.58920901457369,-164.031434416131,0.200663838710827,0.924880414911791,0.285412912870564,0.635041870190869,3.13027510820577,0.193983680084543,1755.85091494721,704.655850194302,1930.53312111172,-0.118239968207397,10.3634652175119,0.0263252207255602,0.849042438259088,0.148262776475041,1.11187727431538,-0.0037163937254175,0.83172833219088,"oto01","1",1
29.0650000572205,1350627.77735617,1.66528046576949,3.89863036118465,454.1708580144,-3963.54778024584,3.38468060850482,-52.5231475290734,0.0976033309553776,0.278882930869145,0.192567125330918,-0.0925840903647097,6.65649360465009,0.272123469753956,1591.9350737289,676.671696991137,2142.0213084959,-0.507759090608213,8.9023469999547,-0.00505360980256509,-0.0232270486570051,0.507912351607547,0.432991968224759,-0.00350761827466346,0.336175850343733,"oto01","1",1
29.3291599750519,1239005.85654611,0.245958719569521,8.74115432836068,506.86124079495,-5212.76226757009,2.45144448332221,-70.4689728577115,0.606851668950467,1.1677188270924,-0.0412864825939713,0.653530827021465,10.2857393092467,0.24817309774141,1758.02613995254,756.438550138174,2185.67392489614,0.742252414401364,11.121622404327,-0.00551030533349943,0.154489010329431,0.353195390395433,0.220084112190039,-0.00382460458740137,0.233089526102028,"oto01","1",1
29.5933499336243,1172419.71348529,1.08959217915226,8.18452101893966,506.507328500057,11021.3180706921,2.7657385663435,-63.3227038472897,0.218272838147013,1.23425564104122,0.221933384175685,0.292029843198845,2.33834984950786,0.211006501349252,2258.81237476961,794.816653609857,2313.26172529245,-0.128615433879101,10.3564235120876,-0.00582428740421431,0.35335471640492,0.161273890226315,0.321423766006823,-0.00404253635431693,0.293394592947077,"oto01","1",1
29.8575098514557,1298515.50139698,-0.326944592935521,5.00749737682768,488.358323725663,-21437.7942435088,0.369147936478677,43.5869422273206,0.101532077526638,0.496090512906371,0.280222013789614,0.623492199663813,3.71512921961914,0.329388315865723,1683.74823468989,833.538228134216,2190.95760923131,1.94449277827099,9.26070375100869,-0.00525703898408627,1.17672040082721,0.145566898020576,0.290119262860526,-0.00364882129447706,0.477039469808637,"oto01","1",1
30.1217000484467,1264808.09880611,0.24092684791265,5.14135741716287,517.45052688279,3277.36641709442,1.91586727500845,-99.4102362071577,0.153263306907568,0.932333160209093,0.0415959114582023,0.640159087414732,9.08659709629129,0.100451111714945,1679.52266329998,598.029415234168,1845.6783154418,0.303933532383031,10.0893729639919,-0.00539757121885026,0.85588868160954,0.149458278800884,0.29787491339964,-0.00374636456549187,0.402633849372829,"oto01","1",1
30.3859100341797,1367302.85695,1.28938935103864,3.85096681652762,505.939370778202,7130.68014979914,4.61581062188428,-124.221995492201,0.368409989754866,2.23144663532407,0.569581469090284,0.59203754949312,7.18450561257044,0.224821576944454,1649.04756627022,669.240769570349,2049.66491806061,0.281086095971057,8.62816959100453,-0.00499183259199702,0.791551337001655,-0.0435148211538579,0.427699799046364,-0.00346475019153921,0.412672118983083,"oto01","1",1
30.6501798629761,1085904.01222072,0.280760932206177,3.71347182871058,560.405675692108,-7797.1687567189,4.63713265832325,-80.4380843073158,0.121481711904601,1.57940310785685,0.526491196136475,1.39194338869853,7.90085842537149,0.00624254224481709,4246.0855807484,809.950355065926,2400.22083111794,-0.138898142089524,11.9658930657456,-0.00628998610747983,0.381608879853286,0.174169302223904,0.826632880216383,-0.00436578014075231,0.570776932420031,"oto01","1",1
30.9144299030304,1270990.52142662,1.57867357635565,3.65736940504629,484.276584293799,84.3432728454261,3.23502949392995,-158.751600417983,0.103737712373654,2.40105240568277,0.776159749139429,0.45317449804363,10.6818429306205,0.147276945918742,1701.65304178375,792.239668304774,2072.74451387618,0.723513070505886,11.7753725939542,-0.00537125456329157,0.501150983245351,0.539838632197974,0.378315658491981,-0.00372810529580061,0.444035961282913,"oto01","1",1
31.1786298751831,1288228.34165443,1.18006557743069,2.16898417371527,563.951767651675,2293.0760470355,1.48383101326502,-60.7852884740804,0.487343583169617,1.95353658523669,0.68519564261905,0.44709268524183,12.1561552714211,0.0519392343538322,2459.82437975501,760.252199499277,2100.99611211164,0.713802216162495,9.64212021450974,0.0574067503738749,-0.0243557684262624,0.339663320334646,0.211652020508734,-0.00367807706925576,0.181376328249236,"oto01","1",1
31.4429099559784,1038411.86518352,1.46501223532491,6.86209499276145,590.338489465882,-21760.4822209787,-0.67152004921452,-118.010105742703,0.664767750950086,1.90968544627055,0.450666221277878,1.23064114744619,12.6814482465548,-0.0514220939227607,2028.28921024895,746.577344910946,2370.04454682748,0.8861597709719,12.515222286563,0.0323447512902,0.399128241502209,1.14023894201121,0.463363794062994,-0.00456621239061237,0.596974052570704,"oto01","1",1
31.707249879837,1161026.34938574,0.471982366747512,5.06995742347466,624.90967614365,-12321.7117499958,-1.04090709613856,-55.4911568780642,0.434081798927097,0.785491195398515,0.0453264885554562,1.50292489287339,10.6195456743865,-0.0977839727969984,2138.69732701863,736.550770430859,2262.87452083911,-0.12988076296031,10.3610643715007,-0.00588168309279903,0.932656151506801,0.591139992390465,0.683296863179539,-0.00408239321858012,0.723671261820451,"oto01","1",1
31.971519947052,1294643.04496174,2.48865255574405,3.59036487193831,533.905808227478,194.985977156436,1.31841531055292,-138.78968745122,0.245491167653634,0.910786643020301,0.521498361087867,0.8058596489415,10.1640953643535,0.19102782043682,1854.80446329709,699.080486560127,2111.71000759367,-0.116436271956832,11.7343930232642,-0.00527285667381692,0.14783239753285,0.529949946523347,1.09494831652291,-0.00365981758179315,0.733921485757017,"oto01","1",1
32.235729932785,1272978.34686217,1.5762112194974,3.65165619153045,538.633731550346,-5141.71357316858,1.70259901181403,-268.97341153862,0.249681864554056,1.13646680754916,0.611915012954238,0.636040200208735,12.3021103808369,0.00532240101676588,1654.41710932686,720.430912962264,1884.00029805588,1.14278164913719,10.6019439026998,0.0263668374073761,0.500369805478691,-0.0467493662295127,0.704792784885009,-0.00372229776860082,0.486648920003072,"oto01","1",1
32.4999899864197,1202923.82705232,1.26402435169433,7.46244837454938,590.119884460748,-3316.56666813465,2.14236735122167,-284.006723445454,0.418915178755315,1.64768619842655,0.0437427970413515,0.867500744648142,10.2484199985047,0.105635764640953,1810.93443172682,687.490523667952,1967.01098641799,-0.125342269750202,10.5161591217974,-0.00567619098251606,0.529603549141195,0.157173774293799,0.572880697066588,-0.00393977110890162,0.469248789766028,"oto01","1",1
32.7641899585724,1213034.37891885,1.8548031866774,2.81347301489346,531.1874903205,998.5596809897,6.38666468857662,16.3308404744962,0.21094265724799,1.41335705454004,0.556694619488837,0.860247680478173,4.32124930675011,0.154336314639904,1694.23190362897,662.800103984701,1915.2248591457,0.316943853119205,10.4282417422151,-0.00562873686936362,0.525176164385644,0.155859828827671,0.396452159964634,-0.00390683615417359,0.374434681853955,"oto01","1",1
33.0284900665283,1170885.41339531,0.260319901845465,2.91508549585371,545.502506006708,1506.14636069352,1.15233283785884,-117.883293252433,0.324487546248423,1.92144069570141,0.754091348370779,0.0927849317835729,6.25733874156856,0.108535811654537,1928.4038150738,718.933804947647,1989.48103785341,0.328390140063314,12.978791228886,-0.00583202809581862,0.353826167021279,0.373818924897648,0.410770861689925,-0.00404794048214678,0.387957793354678,"oto01","1",1
33.2928199768066,1216772.86207461,2.44859982209691,1.78874933498802,541.542928449197,-4138.31626499639,-0.488713965999757,43.8339999381118,0.31221187533886,2.28850643940886,0.213819296124659,0.665514144316176,10.1313377371509,0.0549992250091365,1939.26374208102,688.711854285354,1879.3119551486,-0.12391080501819,9.42026529293309,-0.00561140065169277,0.523559065577641,0.359677375171504,0.737455922786318,-0.00389480795804399,0.59981008346168,"oto01","1",1
33.5570800304413,1180532.57486585,0.876119914050443,6.5570490346859,557.097271988794,-2468.98135242791,3.050169845713,-64.2681812643091,0.0591853216053022,0.545834459561527,0.572071779739783,1.47801538495691,6.91220341111424,0.158599471501083,1733.86622417394,643.778465058432,2237.1412710874,-0.127726898746784,12.201544024497,-0.00578422731822888,0.35092639742715,1.21313113042273,0.495594577951003,-0.00401476733766111,0.618280639825389,"oto01","1",1
33.821310043335,1321441.65694528,0.598474719427293,6.32353107555218,526.670036982201,-19526.2251395491,0.633631883635013,-195.972429837233,0.33432270379208,0.487461779608989,0.589409574279012,0.966297603405987,7.74969999057184,0.369165584307937,1686.54596139714,698.122440362879,2051.95187506547,-0.518997587398558,10.0409153869219,-0.00516565344353234,0.481970012307801,0.143037257930289,0.363836133842886,-0.00358542428843406,0.343630006837254,"oto01","1",1
34.0854799747467,1195346.03004292,0.661810682164374,4.9239629017417,592.648571158397,-4504.4308035842,-0.882578456078924,-163.349798183655,0.369703414264833,1.88199879802773,0.738611879171424,0.0908803131578484,14.8472598800797,-0.044649550965233,1724.69296187694,724.581127469954,2049.92975311955,0.321647444324702,13.3276793392193,-0.00571232809144756,0.160154143422322,0.366147000968729,0.315247311303195,-0.00396486762874711,0.287756667668924,"oto01","1",1
34.3497998714447,1213584.08898358,1.05254134730381,6.88732521086307,542.970848382152,-7812.22222278428,4.18993396498072,-47.0142254140179,0.415225035346296,1.19226680905296,0.385411769000475,0.667269499366302,9.81447399199469,0.352516072245817,1763.90773113769,718.020860850992,2300.64185099983,-0.124236954394081,11.961443263322,-0.00562621644651442,1.25936453068831,0.975148975193149,0.224715424555559,-0.00390510076446453,0.646815941524226,"oto01","1",1
34.6140899658203,1073062.98000509,0.737500431300081,3.75811575952978,637.732344053627,-4234.04541755817,0.35161086510332,-377.953993317401,0.585416392495292,1.09953539951834,0.242557991023563,0.319168732638858,11.4929007929858,0.006317558982989,2050.24851916771,878.793797435701,2165.21128332519,-0.140564273551167,14.3772470666739,-0.00636563125093677,0.593932029430957,0.408022531118491,0.642465937457794,-0.00441832385224415,0.577639777384677,"oto01","1",1
34.8784198760986,1329203.50999878,2.42379331224504,7.21646389920189,548.02202472639,1479.20757302279,2.51557644415381,-119.789805157671,0.332365390099218,1.08826024018359,0.507902088550011,0.960640286521757,12.0934966798691,0.412244444528481,1752.05412374794,722.852221112258,2053.67285138028,-0.113398921472335,10.8329251500262,0.0252485821594031,0.479150312827359,0.51613943072828,0.361707584687412,-0.00356445110637231,0.424542663041804,"oto01","1",1
35.1427299976349,1211825.09792738,-0.149779186116845,0.775878194716358,527.563005510581,-13481.9456922417,-0.786137869605005,-260.31100530386,0.41583020776694,1.63555199676785,0.471613360855036,0.475373348530726,9.8286979753769,0.30339470481572,1776.96491907232,734.081510746433,2318.08078575299,-0.124417509493706,12.305643377527,0.027701957588477,-0.0258967995197129,0.15601793834918,0.0532356178684138,-0.00391080702194702,0.056381626705442,"oto01","1",1
35.4070000648499,1210835.76919367,2.46066973120958,4.86079316054534,561.86607089597,880.404522524421,-0.660072174079327,-303.744255342393,0.160118013026764,0.974031399601486,0.986275366676399,1.05484822798814,6.39433061343006,0.0552699757604833,1973.40519975181,684.506768535178,1905.28383196778,0.317518210796668,13.8108878723857,-0.00563905204506613,0.89418722169861,0.361450864127438,0.741092354278153,-0.00391401918434486,0.693824451264511,"oto01","1",1
35.67111992836,1216662.89146721,1.44957522319377,1.7889249158598,534.286685087293,-5690.93294274854,2.11811269491096,-31.4362291013404,0.261276812248917,0.749463087351089,0.213839471452613,0.0892832270381288,10.8172582247865,0.0055695708965616,1550.37553022309,661.764881880751,1900.69842052745,-0.123920998430835,11.8381641768015,0.0275915202316231,0.157340686406123,0.155396071380623,0.224146682936699,-0.00389522075035637,0.192083281982943,"oto01","1",1
35.9353699684143,1235701.54265925,1.03365178703361,1.26105819961906,565.265621072465,-13831.9476530432,-1.30886334627141,-242.69074971341,0.106710341474155,1.17086348819884,0.630435298081323,1.03355668840888,6.602508515315,-0.0431870073448984,1788.83284792935,693.583347497551,2180.32618459384,-0.122005684026848,12.6622704754636,-0.00552523830231411,0.515521932463106,0.555318803811942,0.726135389819414,-0.00383502659390831,0.635211400506904,"oto01","1",1
36.1997399330139,1179435.94834483,1.0831245635243,8.66005982458504,595.478823904142,-5181.32230220855,2.1851874263552,-26.8846128125178,0.269550660818706,0.54634594371368,0.308609214357939,1.47940042965183,9.03906977152446,0.00574594296404232,1749.47333939461,844.533015785698,2359.06406894587,-0.581684082835761,12.0212148487673,-0.00578968682950095,0.540196018161274,0.581897650927217,0.319517581948354,-0.00401858074225406,0.431886325440823,"oto01","1",1
36.4639599323273,1240327.81516733,2.00992586142383,4.74487322401081,505.574859510195,-18511.7320986513,3.19150565931179,108.917969184115,0.456236268447827,1.81354189415462,0.544409760618365,0.464416467577365,5.23373430244412,0.344893026627597,1975.08906180995,747.08408540161,1932.16632314786,-0.121548982425649,13.253470471012,-0.00550457821821237,0.513594690904381,0.553242765612844,0.807350322755133,-0.00382069115183269,0.677281401651824,"oto01","1",1
36.7281498908997,1227004.1627501,-0.147921652389522,8.32329233881025,534.202892454496,-19802.5946716743,0.474111142940322,-228.420465387785,0.41067104721976,1.83329695052208,0.63491877322137,0.279001205368477,8.34781957087551,0.0545395325826633,1789.45819253153,661.600678096101,1885.60395763485,-0.122872858225586,13.2134135127009,-0.00556454380307609,0.700781296437494,0.356675728039234,0.561616211294629,-0.00386231517357546,0.549874617707118,"oto01","1",1
36.9924700260162,1343297.42215029,1.67445922770452,0.699727970363881,562.806931249051,296.01877149024,0.851725433632052,-63.1498444489663,0.14428417016836,0.280412712517399,0.34809023020761,0.776594267879579,0.799328424674615,0.0050430323703467,1500.850490348,645.57905804651,1767.97980681286,-0.112204900050139,10.2981053669759,-0.0050814342800805,0.474114390046895,0.325709532626907,0.202957245896599,-0.00352699397313202,0.297001970678676,"oto01","1",1
37.2566900253296,1289997.60235222,0.424665801320465,4.56164557733204,464.100604645177,-15387.3468619548,1.79905802406944,11.5502107834759,0.198321560024207,1.5361496504875,0.684259528767205,0.0841927077010626,4.38553341781835,0.19171967349523,1954.33483176931,772.474720854238,2011.99229757505,0.297973518166023,11.7770323730475,-0.00529201818027263,1.01186104093979,0.531879828171375,0.2113682517645,-0.00367316122833069,0.480216897397266,"oto01","1",1
37.5208699703217,1306153.11443808,0.419398321055486,3.5586951023214,563.947780904144,-5277.65331311244,4.5191033247018,-218.917043841105,0.24332377100128,1.72188049722883,0.596332308100651,0.440943586728496,9.11661534651978,0.281420968571183,1632.70127854063,608.207429856754,1796.22754648175,0.703961910596705,14.3595479588932,-0.00522637587731182,0.658194267566373,0.90585181146678,0.607172938606197,-0.00362760142805434,0.685245622596944,"oto01","1",1
37.7849998474121,1267788.54640362,0.432128718492063,8.05475078209071,600.536520627845,2215.61007988539,-3.29169139226371,-5.01367621806023,0.348516472632966,2.19615428310069,0.45073396286304,0.454327571275177,9.72204386714097,0.100215679839565,1681.92461947527,600.064540667371,2182.58708827047,-0.118907665493675,12.0732221004275,-0.00538501598439185,0.502440152433941,0.345168892300835,0.29718560176913,-0.00373771496805901,0.358223558171525,"oto01","1",1
38.0492599010468,1306263.83709478,0.791560912482108,5.92414594628106,523.44645375211,-9346.69570594747,-2.05978273668425,-190.109015340552,0.433140427059229,0.902669117714296,0.914015890048968,0.262023186702413,6.24469022725929,0.189325553674757,1647.80065422192,660.589509542746,1957.70235869601,0.294251282348346,12.6258990880904,0.118453803371658,0.317057695971957,0.525239483258095,0.925849642862692,-0.00362730537850974,0.685198203567943,"oto01","1",1
38.3134999275208,1365411.9542887,-0.488901081332631,4.30900341645113,475.918566854476,7544.83543555502,-3.05568610582192,-87.8643309010652,0.323528720302631,1.05932615654673,0.418417444456521,0.592867351387337,4.44772248625502,0.181101226761289,1632.09124567532,602.256752195973,2004.01530231669,-0.11038198124914,11.5389591861698,-0.00499893050153947,0.629551222981207,0.320421819074381,0.12344663697015,-0.00346973894767245,0.292180657798302,"oto01","1",1
38.5778000354767,1377763.33448692,0.397541166267923,9.20427110035783,511.55035093781,-12992.0622833651,3.24362463785598,-120.889415627982,0.32062041440027,2.40860597576218,-0.0371173860843369,0.417962128475572,4.40772846261957,0.135833554086329,1661.15742342556,632.058866162549,1956.04908548275,0.667268613400428,11.3121001425342,0.024356583937035,0.46222515462239,-0.043185507871447,0.424463480113884,-0.00343855264581262,0.329554127878842,"oto01","1",1
38.8419899940491,1448645.19459855,0.881320376705219,3.20774006116569,490.127821798957,-19270.633150243,-0.551431862236095,-209.734440311149,0.219326993828403,2.47503985064992,0.394313548082663,0.0749481655229082,8.21741604458673,0.212167624929741,1440.13986361557,674.417291870899,1831.33150487635,0.634532271474654,10.5229604005771,-0.00471096218773174,-0.0216525142140608,0.645000074529165,0.259986684891715,-0.00326986512771134,0.275350740013563,"oto01","1",1
39.1061398983002,1232618.2671362,1.03626160479279,5.77770381751828,469.90694349813,-6583.4580060639,1.17746198779358,-218.746295628795,0.207582973407646,1.17380739397045,0.0426861652110259,0.277727574408453,6.61889488363184,0.103084289800121,1776.12882547581,625.056452624896,2073.75066171164,-0.122310448737547,13.3367691685603,-0.00553917553527284,1.0591217440991,0.758394962669884,0.390147914436012,-0.00384472789607711,0.636812811667218,"oto01","1",1
39.3703198432922,1222602.62477763,1.24365706192384,4.81392398061546,483.493827121692,-5425.59046445256,2.69377128642381,-16.5685200105918,0.209288938357023,0.964633620259291,0.297680344117982,0.471172892081015,7.01416777801721,0.251517916623268,1844.15949170778,710.455172309626,2337.8617131892,1.18998625444511,12.5671862209266,-0.00558470144017665,0.338824219130154,0.357969153200409,0.648803205357581,-0.0038763296291334,0.506780899364517,"oto01","1",1
39.6344900131226,1296634.45153635,0.0475242930594497,5.96830127441046,486.416529816738,-18400.0710346828,-1.72031403229123,-152.431720195316,0.292928514340256,1.11568475224707,0.440678183657187,0.263975523969372,8.21939732124239,0.0979799468377099,1566.75896404801,642.274967170999,1987.28851053888,0.296441329406836,12.9817958646045,0.0258851708340408,0.491234573428302,0.337470786264987,0.290557708698867,-0.00365436038250913,0.350234345712588,"oto01","1",1
39.8987100124359,1131602.93342922,0.484315811498987,-0.261696169357063,511.996993227288,-8868.14121715781,-2.37879437121632,-197.864199950172,0.445413026409476,1.51542627282851,0.50516435789506,1.12896560881065,9.05373367920754,0.0059896901128064,1935.96873487496,727.321139830055,2113.8942677623,-0.133265460173753,15.0315270691462,-0.00603534118246425,0.760075677553966,0.386854631334988,1.06924904761292,-0.00418912274155755,0.840052490980047,"oto01","1",1
40.1629798412323,1268119.74900286,1.58233029005209,9.51507793186388,488.198067360159,-4359.73723310948,3.64600829231649,-147.487610314902,0.446209979737255,0.50802578296202,0.286963604277808,1.00706178744848,8.73337425533558,0.147613909455304,1891.72254878812,714.121333151379,2175.76723136856,-0.540874315462844,13.0069392591923,-0.00538365875737465,0.502315316424825,0.54109252553223,0.297111808034455,-0.00373679302167474,0.401600737974708,"oto01","1",1
40.4271800518036,1087972.81841936,2.96318624221673,5.98015859816438,488.950437611377,-6687.08828306895,-0.31164823886497,-243.415820979254,0.520354555337932,0.592441982716937,0.620919395062495,0.314782295367671,9.03481014008725,0.0615341248057928,2009.98265928883,805.667681579414,2266.12415809207,0.353495276631122,13.6597188819242,-0.00627823968734496,-0.0288561005145577,0.859585399218592,0.920828108413855,-0.00435772349791571,0.671101080757643,"oto01","1",1
40.6914398670197,1365411.9542887,0.757184885123164,4.30903566740624,487.18977523176,1482.4282065744,-0.847234447734049,31.8614822849126,0.18733817980248,0.471725172550169,0.266458821725286,0.763985597599763,6.58355833617134,0.225138129421461,1675.60900755241,616.062365756934,1843.89893766192,-0.110381053387718,11.0006467161867,-0.00499898014713443,0.303289071215141,0.320426098825889,0.428319124475175,-0.00346979206888219,0.372907069212479,"oto01","1",1
40.9557199478149,1200287.57435642,1.67204542660829,1.81343911758622,509.039184960788,-12571.1609463349,3.46891434675775,-189.227727807494,0.419844183053217,0.313931692439272,0.476165433882362,0.28523316148095,8.53391314989773,0.155982960761546,1771.88200511121,745.775951947693,2230.00388587652,-0.125614690864779,12.8959261189384,-0.0056888986495265,0.159498911265807,-0.0495920429410285,0.487432441658254,-0.00394866685471342,0.286582327690173,"oto01","1",1
41.2200498580933,1608683.90088024,0.491375846318835,1.7359396231643,373.010349224084,-2189.31008814428,0.806218104474998,-169.514213909491,0.158940715273388,0.898752695647948,0.0326836425424126,1.08371714228837,7.39781230664746,0.0415688674224858,1435.07205549121,557.855639498238,1535.29984062801,-0.426094712672856,12.5669658406838,-0.00424122049218183,0.118910594431798,0.889524757498872,0.945403976534972,-0.00294383461995216,0.727312680783896,"oto01","1",1
41.4843299388885,1322106.77931125,0.965928646720045,3.51567208969878,432.617721888008,-2072.03517518767,0.323870327055035,-93.8380770595732,0.146604568033569,1.29643638097134,0.903036161259742,0.258875662997226,9.32116161138023,0.0960870725597452,1733.22379985141,647.782270940618,1930.88777958732,0.290711475334263,12.0892905676972,-0.00516321241478485,0.481747813692347,0.518937230033952,0.91474094364201,-0.00358379211144354,0.71866323454702,"oto01","1",1
41.7486100196838,1141986.54001397,-0.158974945413455,6.23783425128505,452.144317811923,-3417.84607572288,3.42247566977647,-105.823622013523,0.495661176198665,0.330012921650562,0.500557103591295,0.709253496604622,10.796262697235,0.37469675372578,1774.09522393299,663.784364883105,2091.83612992252,0.33671786765478,15.0431854427604,-0.00598032607982831,1.33864284966446,0.383329282616329,0.330041333167369,-0.00415095419647279,0.590965683045031,"oto01","1",1
42.0127899646759,1234159.81430412,2.02005739172055,4.26786308220526,388.779270425332,-2997.00450420491,-3.46452288684969,-237.674961409075,0.20732389691813,1.82264993939926,0.631231237986586,1.2242360856986,8.97429185042935,0.0542228642995231,1753.64855561663,565.057861861089,1627.01569137504,-0.122155944680394,13.9162059683024,-0.00553230238179739,0.696726454123549,1.16030882225003,0.98013160988285,-0.00383998250324282,0.948705326931993,"oto01","1",1
42.2769198417664,1188979.67735177,0.869912798535651,-0.768962620080621,426.583489912531,3389.37345802428,6.08569018252763,29.0390020407968,0.267382776713601,2.56724850394604,0.480709650929268,0.877721382375056,10.3681274234348,0.157471628056264,1581.64060330697,671.629207965554,1658.65869947063,-0.126812624968196,12.7811256728362,-0.00574320977944919,0.1610219455584,0.368130789311117,0.22939108079798,-0.00398637614493414,0.242946283229085,"oto01","1",1
42.541179895401,1040798.64004533,1.22797047658813,6.25225082520813,507.524250133249,-4868.59154916506,2.72332359071312,-294.56721626635,0.186375530839098,1.13376076578493,0.549402191111112,0.104426280079319,7.84302891685857,-0.0513047999357152,1845.75066490729,790.351542810651,2202.09163760738,-0.144933725125703,14.4987732181359,0.0322717999300111,0.398234687218141,0.659717531650988,0.462326757112489,-0.00455602797668306,0.489645554237672,"oto01","1",1
42.8053798675537,1098648.71636406,1.16308643258488,8.17346563122412,487.421069491062,1129.36067539009,2.90558518402912,-81.7218497395249,0.571743242102892,1.80464804375163,0.709362415551207,0.311713972635146,10.8440163335817,0.115699145161882,1719.04630513017,759.26493611475,1869.96551204241,-0.137275346340575,15.4841623193196,0.0305666023162156,0.377192662937412,-0.0541965280120759,0.437898227310574,-0.0043152962905758,0.313189143643656,"oto01","1",1
43.069659948349,1376761.44012897,-0.131790747999615,3.82458897867045,375.591251293767,-14436.1619249684,1.27673514668397,26.8478931265494,0.500950569368196,1.43908480493471,0.490314787424634,0.92737639464994,9.55524515100483,0.0922622523077623,1587.50837159553,679.720778808753,1869.30342223793,0.279137089708647,11.0330371282002,-0.00495770490231579,0.13899896957785,0.317781514710878,0.349194612328586,-0.00344116143291671,0.289774118232346,"oto01","1",1
43.3339898586273,1204901.36475126,0.051154930965643,-0.758771627756734,458.957770980581,-12812.2930305267,3.413126338804,-18.8475584880991,0.263838768627757,2.31116348293545,0.129803438357774,1.06007374278288,11.9602969916433,-0.0442950995999222,1638.74712855957,653.580478516532,1858.3950189437,-0.125131104768993,11.5319659210904,-0.00566710170149432,0.158888361838199,0.156924540931434,0.485566661472921,-0.00393355874456427,0.331239423258969,"oto01","1",1
43.5983200073242,1225793.59251411,0.0502803902479376,1.77560213835467,381.487189587947,-3207.14936955758,-1.27778137300595,-135.914468256935,0.360497350493419,1.3986238080597,0.127584214975838,0.660612251529503,7.67559080885764,0.00552803615014312,1643.80709047754,588.350133958974,1746.31591976971,-0.559602165580198,12.0731066158166,-0.00557021626734015,1.24684688389595,0.559845532342318,0.816986524697399,-0.00386631247541862,0.865258971728806,"oto01","1",1
43.8625500202179,1130619.65106216,0.484747909881187,2.47246650195605,367.83388998436,-16844.2597003097,-1.43094850878748,-144.500596182144,0.171519210068773,1.51675835820096,0.321982972172819,0.509639614646253,-0.524464868318709,0.378478119810562,1641.94273078888,652.839806919741,2066.59369130673,-0.133379883679295,14.9447715262676,0.0296994559230505,0.366492637197749,0.167269986969263,0.517578284160771,-0.00419288533019306,0.401847704416561,"oto01","1",1
44.1268699169159,1335416.28919237,0.0461411953110896,3.01777260452008,313.904499971249,-6640.79411814125,2.12078861532573,-141.25036108549,0.23797910821354,0.482354010945482,0.194771470026403,0.606228103724906,4.54768526839688,0.230211111587964,1700.64436348733,619.788161248945,1812.05069598201,-0.112866147990215,11.3333069057137,-0.0051116614953277,0.143315672336658,0.141544318768544,0.282102655593302,-0.00354803176198598,0.216232119037139,"oto01","1",1
44.3912398815155,1303938.85702021,1.53876793051566,5.46084584205036,330.933048366074,1196.08896152375,4.01657724556546,-19.2922356379732,0.148653964160523,0.904292574614299,0.358632142533436,0.44169948305366,6.8946285183115,0.0513128683113237,1558.29030666712,626.33548186949,1887.27242632118,-0.115598676878049,10.1331717897841,-0.0052354272798109,-0.024063260522359,0.716812796320124,0.767883804418197,-0.00363394043235541,0.559634881443977,"oto01","1",1
44.6555600166321,1272205.26789242,0.23953891690808,7.54098834518505,347.649343786741,-15740.391617405,1.46240694227084,87.5341970537626,0.103640759026426,0.716654424933705,0.0413542558217885,0.0853747531899591,6.08446191868513,0.0998679920690877,1319.19159589839,560.164134085412,1732.33495067768,-0.539123567941198,13.9436781952388,-0.00536641838817766,0.67583806339329,0.930133976726585,0.86892135500681,-0.00372486434725397,0.833603706514112,"oto01","1",1
44.9197299480438,1083400.10683761,0.281431897640599,6.00557345107309,378.732865315777,-3978.94488671711,-5.26975628110574,-185.546172037745,0.236277293451469,0.100894048398092,0.240239287785791,0.747747172267946,7.91821093649463,0.395033171607231,1816.94742214192,763.411606730014,2101.64355671253,0.3549869257191,16.1732695529127,-0.00630495048858701,0.382524973385681,0.404139031196393,0.73248458126854,-0.00437630792472937,0.572144325145564,"oto01","1",1
45.1840798854828,1193260.15984175,1.47816563854861,4.41466106192049,317.81774619094,-713.713436595229,8.55358877501845,-151.277591441066,0.110519700171628,0.988439660987803,0.21805008679268,0.286920340194757,10.6798721949685,-0.044728778139997,1636.39396051101,632.868402341614,1752.50294589134,-0.126354958876769,12.6404601244613,-0.0057226108550466,0.347194230946984,0.158462036147996,0.490324200701128,-0.00397210450035704,0.380687608001747,"oto01","1",1
45.4484300613403,1190845.35667741,1.27696783998808,7.01950511353333,358.83683498305,-21308.913013532,2.07828169153653,-203.766710573338,0.423187060263573,2.78791596717812,0.654268411741214,1.07263020478286,11.0516025337049,0.359276370368559,1570.31422605759,584.335717942323,1792.73798143706,-0.576074209998867,13.8064701921771,-0.00573425893232923,0.160771758799913,1.82902416772752,0.0541797280209379,-0.00398019189281742,0.474062954747633,"oto01","1",1
45.712630033493,1127561.02353153,1.56459062136049,4.12437496214262,349.712350807986,-5137.07356246446,5.78242653131499,-250.779422546261,0.171986593741342,1.99556046442189,0.414922736704315,0.925699107569725,12.0437012180085,0.326151408735223,1801.75283291231,660.108270646188,1988.77312135805,-0.133742047780492,12.8275288561992,-0.0060571964937893,1.1581818029132,1.04986462744189,0.241933412178544,-0.00420434777540055,0.647469233641378,"oto01","1",1
45.9767699241638,1296191.89067516,-0.140008941015204,3.58622005343865,339.480221308375,-13005.4555584909,3.17204659405335,-45.263348996234,0.197373906021938,2.97341589994071,0.28073284945812,0.444348349873285,8.22176330399652,0.00522693386137061,1512.89991990864,646.404984670974,1844.39821772617,-0.529114833636127,12.2882967370313,-0.00526684543401504,0.491420500680599,0.337598377049126,0.21036570574427,-0.00365576106654208,0.307843139257518,"oto01","1",1
46.2409498691559,1226894.10629236,-0.147941896254206,0.76634563152192,348.687236958361,-25890.7073400596,-1.69340867567966,-66.4858297099597,0.158018617726493,2.70574829153644,0.888752062401951,1.42201904557449,6.64946417481525,0.1035681208313,1406.06219542784,695.778884325327,1989.34208963515,-0.55909341413651,13.3534658830759,-0.00556526562305154,0.337648538539066,0.154105300415759,0.391989938428613,-0.00386289930139186,0.325287141560891,"oto01","1",1
46.5051200389862,1174063.80608578,0.0525037619715102,1.85410871774984,338.596496312568,4694.85422603504,4.94206454116292,-49.2903104447326,0.165152429847424,1.23255512641685,0.221627391504125,0.689817536495425,10.1448589835856,0.0570078854828882,1529.71040701928,638.564282260839,1966.2151984981,0.783395955585355,14.05271808667,0.0285972027197513,0.352892186190364,-0.0507049276346884,0.498371165797861,-0.00403729646789243,0.339974594313195,"oto01","1",1
46.7694399356842,1201715.47871582,-0.151051903445351,-1.78961245309449,316.443275331721,-9533.94296614854,4.10376119971435,-193.749666700501,0.212940883199525,0.981465248769166,0.475602120203185,0.673894312514782,8.17648570261333,-0.0444131909277368,1797.27784978726,694.517017601721,1918.18624237778,0.319922827553785,13.587089390305,-0.00568225535505482,0.715616337802371,0.364226062903778,0.746783505595103,-0.00394410760749089,0.653273980726361,"oto01","1",1
47.0337798595428,1109442.42763507,0.494040597703804,8.65119636781975,372.994546278534,-7474.19019024053,-3.6710246019522,-169.376223639673,0.677986759646654,1.06337728145167,0.234581322894701,0.51940403190881,8.10732465016176,0.331497122832901,1640.74873116961,617.25352964875,2021.3705583484,0.829182550219549,16.40475644531,-0.00615649444750418,0.373519248542299,0.618773635234085,0.809110137592662,-0.00427328403738647,0.658089530090428,"oto01","1",1
47.2980499267578,1466566.5806405,1.03627354574092,4.0111312544793,283.26537536091,-6104.80985342859,-3.78487580464957,-135.823363780755,0.301159913306621,0.621431779353396,0.318760802256332,0.551876124873935,8.11614634652115,-0.0363715533106658,1419.05110546916,538.075674562313,1436.42414148349,-0.102745342802587,9.39211096754417,-0.00465340817834914,0.434184893697845,0.975982746281237,0.256813823882938,-0.00322997883694484,0.459844554553408,"oto01","1",1
47.5622298717499,1177352.61103386,0.052356893016726,1.32380773262097,308.836479135209,-4030.61840173299,0.537635177515597,-64.4299885661258,0.428054221313975,0.774583083342415,0.309162523812159,0.29081076174288,3.39010382666732,0.10794060951763,1835.31180598915,720.46329198391,2304.30328584307,-0.128066666275127,13.676962012152,-0.00580024038096027,0.541189953288732,0.58296788677238,0.320105710030227,-0.00402600935856483,0.432680994846719,"oto01","1",1
47.8264999389648,1475944.88096089,1.68832568553799,1.47390077539083,297.939807350164,-14408.0235243329,0.220752764759319,-168.173963162271,0.425212118689178,0.798637200693469,0.387006593226539,0.073559360500894,4.11343192321196,0.126776455712862,1381.94683079364,489.773997289608,1484.7970685122,0.260325959332295,11.8607625573082,-0.00462377331968572,0.129637471659943,0.296379027561628,0.537174417714014,-0.00320941281091235,0.382256111193355,"oto01","1",1
48.0906999111176,1190845.35667741,-0.152436152502702,5.98119861857102,361.584698147744,5433.70156634879,-0.757105218708223,-7.39765082468455,0.319039321266811,0.316432511563998,0.218494659049719,0.483785383463875,5.80134218239689,0.258251178594779,1703.57050330416,619.337005347257,1993.76139079589,1.67125773921827,13.3789848007409,-0.00573432221293551,0.722175010914459,0.158786994534671,0.229038188926188,-0.00398025960583293,0.335168614049406,"oto01","1",1
48.3549699783325,1163216.61050296,0.471129360834519,2.93450891981809,312.490163812026,-17170.2086844118,3.1838306024873,-104.57939502071,0.220012411617017,2.16423717292329,0.580629211624926,1.29916052697338,108.53618950216,0.212688895067338,1647.97286264017,730.43557673063,2045.02900250789,-0.129627770209919,15.1573724731298,-0.00587097990012019,-0.0269845714969866,0.590078415631645,0.950624615138709,-0.00407511772876316,0.627577944686387,"oto01","1",1
48.6191699504852,1247821.43082124,0.633938944073198,4.7164713629894,332.237266864773,-21497.1879511798,-3.95897727640503,-205.562774414708,0.155360944900362,2.01704706296039,0.37481272124976,1.58540162537337,8.87523125009924,0.294623068677408,1537.92158184039,573.166707660886,1703.32493179467,1.16582423040533,12.4942260870662,-0.00547169734832989,1.40337390402666,0.350730470314179,0.802543024400768,-0.00379797317926423,0.849963575903143,"oto01","1",1
48.8832700252533,1360741.47493621,-0.133350510383638,5.23232022492123,309.968582155767,-11106.1213060835,3.54761815602583,59.5955306185802,0.187985587410302,1.8491928567916,0.419864504933777,1.28175529037961,20.3858689985153,-0.0833944919854536,1577.93238285364,684.702223318982,1707.96988661657,0.282426823494236,11.3298058236972,0.0246631871828585,0.631756065320333,0.504182774370889,0.429813619324926,-0.00348191867320998,0.495712049833759,"oto01","1",1
49.1473999023438,1121991.7914253,-0.812132560306664,4.69609623468318,327.264650745289,-22413.9699804745,-3.62984025389235,-128.841580872938,0.283404615538967,2.24403167228307,0.416991555110349,0.721944830343748,11.3601862104122,0.274154114039711,1703.09321447599,601.969678917775,1955.51995627514,0.819870369040017,13.1437505575927,-0.00608745280938857,0.369331614344986,1.05511402929714,0.521587797290949,-0.00422538175162906,0.601557694948998,"oto01","1",1
49.4115698337555,1172638.9138983,2.12646136811595,5.54712666564577,373.022190100426,-4790.29793206617,4.11855760199129,-114.891020834862,0.27112421841697,1.46224337578034,0.487435671246105,0.690661738702655,14.0672186774288,-0.0968156548731575,1764.72788979456,653.036837114637,1874.16973679787,0.327878486789534,13.8769909118781,-0.00582367710846713,0.923482773739671,1.00939521834024,0.498987058965255,-0.00404229395392514,0.71655120027534,"oto01","1",1
49.6758599281311,1346295.71082306,0.768000895133328,3.91146473663454,258.268463762868,-8917.12756610635,2.55962946904792,-32.0376002701593,0.512324736058718,2.66378253764222,0.193194696030318,0.254214552896385,7.91465774554588,0.0496943637207042,1518.86535992041,597.538287682967,1735.48906826482,0.285465102428913,11.4517586230654,-0.00507035391900685,0.804025751520688,-0.0442005357153958,0.357132716527952,-0.00351940412608107,0.378237422641979,"oto01","1",1
49.9400498867035,1103117.75638482,0.49689012821344,2.5343707270327,342.342657223373,-13129.2646146658,2.05855432722003,-314.166271491542,0.175812047483438,2.28256296174624,0.0477155491593079,0.31045032284631,4.75262243111798,0.00614501194616221,1632.25770912305,688.097360781961,2303.34275792452,1.3192796440748,14.1902655903791,-0.0061919904139985,0.173606377326359,0.847788194791581,0.341727023592407,-0.00429795039621845,0.41191369505897,"oto01","1",1
50.2042498588562,1142533.27421635,0.479691265660659,4.61139728652151,332.890784215093,475.394943877615,-0.431046803613157,-230.290338194881,0.386860598913419,2.43777505173193,-0.0447857687700415,0.504312734177212,6.77701553845945,0.163897118328312,1799.16868637321,669.700746347853,1857.3507401486,-0.600505289558118,9.39168718171753,-0.00597766580826167,-0.0274750045393853,0.818443843524972,0.329898894337208,-0.004149187057133,0.349394213026177,"oto01","1",1
50.4685399532318,1231517.27292949,2.41939717861433,2.77127059925634,291.085548597195,-17205.8915989027,3.79635520084832,-110.043239245078,0.409170847628398,0.523180769561599,0.211256975661174,0.0882050629550676,6.62418306600867,0.00550233419375507,1836.65517107443,704.003283227369,1890.97690299974,-0.556979690019729,12.3846314564551,-0.0055444061732526,0.87919911124906,0.153528625668123,0.305988036691163,-0.00384845737867534,0.413599756553317,"oto01","1",1
50.7328798770905,1159493.38478731,0.892145366999199,5.0769866149021,306.193033896155,-15771.9768274177,-2.85063708150689,-162.032488434258,0.541648794817166,0.786557193445862,0.761545714675853,0.496912068575396,5.95859068364915,-0.097917158748862,1618.74188036404,619.346788945835,1883.85200065445,-0.130044300239939,10.8634008551725,-0.005889952992469,0.357349963424191,0.80643508538449,0.504666786709447,-0.00408830917142516,0.534486917773312,"oto01","1",1
50.9971499443054,1174063.80608578,0.259635850368242,2.3807316004502,269.025802604046,-9982.04105634468,4.81127844492671,-90.3747303889943,0.270794818076321,1.00466322377956,0.39843784470255,0.490725315644538,6.59437271142258,0.210718473712852,1627.31472657914,733.861629949862,1947.97518040941,0.327477423540341,11.9807708534359,-0.00581662466583168,1.11219149599889,0.584617523807379,0.409697489942912,-0.00403741323818761,0.621758853805499,"oto01","1",1
51.261440038681,1574777.73818345,0.964911227810729,2.55802063171775,226.820808449712,-25190.7551654542,2.18735971169366,-25.8211195236371,0.398463170285278,1.0879354220638,0.296805569238696,0.958808335156663,2.26795902347995,0.0806339562846579,1269.53631363148,472.63091800113,1451.09203094923,1.26279695466115,9.49907370955654,0.0213031324244708,0.545689054631457,0.435495588089977,0.305193477954876,-0.00300756642192949,0.393194537648316,"oto01","1",1
51.5256099700928,1480273.32726261,1.02667458063091,3.97394639625337,239.140627846483,1053.25031610448,0.772731155467965,-103.0927472975,0.0890362351237543,0.796300602099624,0.385874231570517,0.231146993332516,4.66396726718802,0.00457529430298884,1339.10582033917,528.59030396254,1653.85823140835,-0.101789975015045,10.3362747514032,0.0226667278633352,0.279711679395455,0.295516284429003,0.324728788212537,-0.00320008011014661,0.306693918601274,"oto01","1",1
51.7897398471832,1212264.82356,0.251429256370945,7.40521469702865,255.163631462866,280.1884765494,2.88575423721507,-78.7499832443258,0.262234836334166,1.63500061993493,0.300232678979576,0.475213178574562,4.32329335461838,-0.0440258884086789,1662.92496125578,701.742260854751,2355.30610456787,0.317124359965658,10.4823516755297,-0.00563276890523178,0.893212926646321,0.15597575064136,0.396747991129257,-0.00390980299177929,0.465671200881737,"oto01","1",1
52.0539200305939,1204901.36475126,0.051157128691257,8.47687067988368,256.404647548866,-10449.2156650819,-3.93079823049601,-124.013995696457,0.315307755331395,0.534775852315327,0.732756139045171,0.284142577545572,4.6956507376978,0.00562428291949004,1525.73047515507,648.638554928219,2104.20521702535,0.319068263131809,11.9079491230454,-0.00566730809564544,0.343842534998437,0.569610875716381,0.658413141207496,-0.00393377959623372,0.560043950432158,"oto01","1",1
52.3181998729706,1210286.17438857,1.0555119521473,3.84165268804183,285.018505685687,-12755.2933755279,-1.25197619508463,-124.810989823248,0.313900577798144,1.85874764802371,0.729485917682016,1.24848230915046,10.1841428662675,0.10499501371814,1728.89289635292,635.316186183381,1733.37382146156,0.3176438648559,11.8548131369345,-0.00564201935313319,0.342308372143382,0.97791328364059,0.655475432515776,-0.00391622857044966,0.64865212712521,"oto01","1",1
52.5824799537659,1332864.2572447,2.05252788118383,7.19698766475166,253.752949907367,-72.131968740101,-0.752927956327758,-131.08125280202,0.33145979230637,0.884623059738521,0.350831267704497,0.958021728265822,15.1847169776666,0.1404261085766,1643.7790843828,659.129395862828,1659.55024248188,0.288347091489261,9.02220786442865,0.025180898440179,0.645021009851728,0.514768946956349,0.595021402797941,-0.00355503826547125,0.588826735060236,"oto01","1",1
52.8468098640442,1260835.22061202,1.01306850538907,5.15797601092938,280.78481306475,-19431.4251576826,-5.49853178364644,-231.948407474885,0.350453228718698,1.14748348410014,0.370934722649158,0.642205990550876,7.7915212713485,-0.0423248270560677,1503.95078596102,660.219268440815,2223.37953949715,0.72930174352731,11.5126891624786,-0.00541514459869442,0.505262708520853,0.544267000895159,0.629118223338869,-0.0037587551588394,0.578846994319822,"oto01","1",1
53.1111199855804,1500472.74333729,-0.120903039850287,5.56743902137753,229.756091779414,-3973.25673723858,-0.566416827672433,-148.526322167954,0.335642141075885,0.607359073508438,0.311542160757876,0.383702627175907,9.87506636562363,0.164762794457629,1362.1240487396,532.009138216727,1450.16903140245,0.256054812574072,8.5391561206601,0.0223609556168635,0.424362558410642,0.125940576096101,0.112316081577518,-0.00315692262228811,0.192394378543571,"oto01","1",1
53.3754498958588,1204022.42225791,0.051194926034595,2.83478253539919,257.132066885377,-11301.5310906858,-0.876233815849815,-87.4369899127682,0.264036450421481,1.42401677331907,0.388493699037933,0.672606188647654,6.42963619436422,0.0555856002989333,1770.61772229741,629.108093649031,2107.40080210671,0.319300435519694,8.01850660514054,-0.00567148975155034,0.344096925712008,0.57003225164183,0.658900321170151,-0.00393669392697551,0.56045829987826,"oto01","1",1
53.6397500038147,1482377.56667203,-0.122383024134881,0.633941186688499,285.263148867384,-20045.9749226958,1.22005734565359,-135.461598231385,0.256135396134508,1.69707818053585,0.595243030698407,0.703562793402176,7.46694977071585,0.32899518989959,1424.14661742378,572.148885996463,1687.6421099255,-0.10164435035017,7.95740768983253,-0.0046037685975946,0.129077725574242,1.13320405862354,0.605051215053109,-0.00319556933174819,0.603632286595731,"oto01","1",1
53.904000043869,1244955.71951071,0.830726553720759,-1.23080737944933,296.831612871559,-7778.35335387804,4.28977923005231,-102.280683023743,0.305132937756381,0.732399779204098,0.542394428519387,0.274973411191488,11.2385043523039,0.0537524027318729,1743.52738293418,681.783205979453,1813.12771012611,-0.121088287392901,8.48055623227705,0.0269645964377738,0.511730311726649,0.551233839925564,0.386302489261257,-0.00380687206030418,0.453409628357577,"oto01","1",1
54.1682200431824,1262159.37979284,0.0488298317104763,-1.21398105890685,240.931648852392,-14692.3986871547,1.55517881593955,-188.309950261082,0.202714817813476,0.510443652775688,0.699415787105421,0.641531562163196,10.7546573735231,0.0530175377531666,1718.01217926331,622.399073062777,1954.69296819114,0.728530887742876,10.2460196102389,-0.00540947603288515,0.857807465564948,0.346744916513728,0.793423826617476,-0.00375483172339718,0.709274437618755,"oto01","1",1
54.432590007782,1508408.22822378,0.363050492190504,6.76695275421617,216.305442941418,-5646.34995444999,1.6057601721289,-97.9112232691813,0.292788330589044,0.0723950261259048,0.378660290718175,0.691391395491481,9.27059894143862,0.124042616298121,1227.72758595053,511.107020520398,1397.02582448851,-0.0998855293755496,7.4825980403773,-0.00452413413443389,0.422127550149729,0.125277268823454,0.249682199880415,-0.0031402990650225,0.264436183427687,"oto01","1",1
54.6966898441315,1202484.41476227,1.87133038809279,3.35255676101591,237.386900535356,-5130.17245016991,-0.707231283124553,-96.3856647219007,0.367514469358539,0.535856440443505,0.0437603373151808,1.06223079585573,10.5968180913023,0.00563565141264307,1646.99205718447,735.04089077904,1826.53547416986,-0.1253783805435,7.27670314538945,-0.00567879821926803,0.159219019994725,0.15725099668905,0.226822820610382,-0.00394177866149443,0.194376387068316,"oto01","1",1
54.9608700275421,1135427.51286908,1.55378494302907,4.64042349924557,266.084688577456,-19383.7373589698,2.58581436772453,6.64350352699574,0.443918880612743,1.03897208124873,0.412044245677228,0.0956956774096217,13.0604726076893,0.323889713043089,1880.56365838521,777.38119527689,2482.03204367251,1.28158851297086,9.15202400962606,-0.00601532137315691,0.364958524524645,0.385579763460036,0.423695447809191,-0.0041753692745776,0.400164060867387,"oto01","1",1
55.2249200344086,1106934.00167084,-0.164037449716085,5.87764017187851,253.379480357091,622.024109917638,2.14393641440673,-191.165651315999,0.231240525837246,1.54935410773102,0.0475508646697158,0.309378955183368,6.99541978602834,0.549686181250112,1828.21021513803,751.08730387458,2173.79543638834,0.831044017356702,9.95043697839708,-0.00617070518545661,-0.028362481235883,0.395539955939819,0.152387197904447,-0.00428322721696298,0.161392451179543,"oto01","1",1
55.4891698360443,1522114.97484588,1.3177210686596,4.27038428116777,225.114213596587,-1684.66112872964,3.54031624878347,-115.811205747028,0.412287038706611,0.598703850793027,0.920382011673297,0.685150853069277,3.16730096026642,0.083431451839286,1475.65649352195,586.805025227681,1668.75968152792,-0.450366817983975,7.19234441102765,-0.0044833111287111,0.125700760663293,0.287378720604625,0.315786966794782,-0.00311197037468881,0.262051070886399,"oto01","1",1
55.7533099651337,1162011.92150559,1.51812608500921,0.809300946305978,260.20076156632,-24240.5423162055,-5.57192786651845,-46.2789271520323,0.487102532464356,1.01512534078727,0.670567352297159,0.697006096441825,2.71747347505504,0.109372003568543,1710.72695798451,686.100056676944,2138.07088036139,-0.129759209267654,10.0125873546466,-0.0058772682137396,-0.0270137750891591,0.376731039663249,0.503583887479476,-0.00407955079834023,0.343530374978751,"oto01","1",1
56.0175099372864,1308035.52637117,-0.13874437159488,13.0050021723432,271.121463529862,481.696149766497,7.29197487081971,-241.039257272295,0.290375816311758,1.31045439291451,0.119541203168178,0.797615605419833,9.73909530492539,0.097126401266467,1536.30039028467,560.017225104746,1696.31440100215,-0.115230832661291,7.63834487099162,-0.00521923564157479,0.146334348250026,0.52457892006852,0.447201653537127,-0.00362279700023311,0.389346728835494,"oto01","1",1
56.281769990921,1151831.25583186,1.32043511164943,5.11096120037744,289.024666074051,-18148.0719059356,-2.55893977165067,-139.677084400538,0.383731245120557,2.41805453422377,0.496275751084797,0.0943284923547539,12.1499063688907,0.00588432930364235,2018.38238003743,813.321287378249,2262.16450966596,1.26327011338925,8.23589173216972,-0.00592940170738991,0.746752341841249,0.380073069539458,0.96009616904935,-0.00411574280905605,0.777450326487074,"oto01","1",1
56.5458600521088,1202923.82705232,1.6684975363381,1.80954101121935,259.851957674877,-15345.7995257569,3.07845364538309,-173.820584238653,0.0580823777273631,0.980491626078113,0.475130045117204,0.478918786841735,8.86046159498704,0.0556368562969277,1384.96519763765,576.75041582773,2114.62631377995,-0.570249065017883,8.30793250886702,0.0279100924807731,0.714934913391074,0.777251979618861,0.48640437193093,-0.00394038110363822,0.60681306996613,"oto01","1",1
56.8101899623871,1199518.76723928,0.862306944266276,2.84549069214717,248.684146712497,-6014.96477798187,3.34324482807356,-205.664770662113,0.471823795841311,1.20633539791399,0.216912655394786,0.675143358452012,11.3178210186895,0.0557953248806438,1809.08260440471,664.962554788191,1841.33352448838,0.766690404481443,7.01208688852421,-0.00569293345656314,0.716971961445344,0.779466572971733,0.574592375508225,0.0428090366031971,0.654507854561797,"oto01","1",1
57.0744898319244,1221062.43549619,1.04619196334814,2.79513114582113,244.920537394879,-20518.580922969,2.4458174032803,-170.55971162068,0.209560001937426,1.84230614405747,0.298065178890604,0.663194391023519,9.41097307510281,0.153325376858791,1891.75341834884,722.50531601018,2029.15342423532,-0.561750468105861,6.33257983026427,-0.00559218133702688,0.704283450317188,0.358457743037918,0.393892443242624,-0.00388167685984863,0.462318356859298,"oto01","1",1
57.3386800289154,1153582.2038473,1.529268540975,0.27926337853919,262.333949141808,-20639.6114690782,0.327002679024889,-9.762664417424,0.329384390576371,1.25453355145396,0.225579217798938,-0.108456144569144,11.4086134993251,0.475233290256837,1470.24522387442,596.147025463358,2198.49572186055,-0.130709837990737,6.50826221590132,-0.00592039803774806,0.359200669858748,0.163941735542585,0.0559394932410215,-0.00410950296751095,0.154845874349394,"oto01","1",1
57.6029298305511,1260724.88004101,0.241742261426656,0.255458155991108,270.072553809209,7758.70689771007,4.84506185321609,-60.1479769020302,0.252126773654815,2.42076673399178,0.94716047428605,0.642267314485535,3.82591688356922,0.100782612333691,2422.1762570613,566.929359188175,1757.96732013976,-0.544022969454969,5.5949316680495,-0.00541572756380945,0.151843854008595,0.544329323499155,0.546614440504671,-0.00375920025268312,0.447733327713617,"oto01","1",1
57.8671498298645,1072736.67787447,-0.169287651943139,7.79542602491367,261.365443406539,-13665.1848832487,5.98365983383948,-44.0439609242093,0.238639592773826,3.34555030571003,0.0490723453615301,1.1911738168603,11.4941092929846,-0.105865883826168,1971.12066974139,817.394411456468,2319.98472947061,-0.639699118077126,7.21133413027331,0.106665949779084,0.594191834656098,1.1037874586008,0.351455754830348,-0.00442033435811595,0.577890039686912,"oto01","1",1
58.1313998699188,1488930.21986604,0.531042942522522,1.04610523441646,212.948586992111,-6910.12597976076,1.79857336414451,-138.696497755463,0.0468968025618168,1.1508370236941,-0.0343400192270267,0.543575159796326,7.71344871554412,0.085296154020879,1369.59830287328,560.675075069165,1496.0947757584,0.617277821199419,5.68356687238154,-0.0045835416008292,0.427672987326554,0.460687501175179,0.252962303310315,-0.00318156169063671,0.341924272719864,"oto01","1",1
58.3956098556519,1508885.77851296,1.16825603251045,2.67007148148584,204.790453483842,-3219.79061262127,1.80862053072047,-96.7920137694605,0.169484722620131,1.48999194347906,0.309803227949283,0.691176454463445,9.81941993105035,0.0841652555075846,1299.67847633731,507.606015537184,1426.56739306807,-0.0998524372666525,5.49591062469625,-0.00452277350382452,0.422003113132749,0.125240306821464,0.249608660017839,-0.00313938276757856,0.264358235562624,"oto01","1",1
58.6597499847412,1128871.7762198,0.270075373706431,5.21530266384749,226.745147305539,-12803.1520418542,0.832784807952093,-143.247218282475,0.336619715035569,0.570921589782547,0.414447637076952,0.303347922845466,12.7668795935633,0.00600444097099715,1706.15240555258,731.965102909235,2553.84668682665,0.340622656760242,6.05039732648059,-0.00605046663014969,0.762002057285391,1.0487177333302,0.241669520001256,-0.00419979952766849,0.549058209290441,"oto01","1",1
58.9239299297333,1131930.71066308,-0.160405607466824,4.1085701403862,300.446745913365,-16748.0690594311,-1.47451872526822,-101.685549265816,0.50009391978391,1.51503230619054,0.596741660000606,0.715595621465646,7.94489582573813,-0.0471616692801003,1779.86768747008,696.892517760492,2011.64436760902,-0.133217779775175,8.48117335546081,-0.00603406702744943,0.169180927965468,0.826176505671308,0.149013747183789,-0.00418841860416014,0.303975555645474,"oto01","1",1
59.188129901886,1259180.20940121,1.97996327966631,8.60148668515057,271.438608479563,-14658.1686000774,-2.38073064566686,-132.92067538839,0.00624127717917792,0.936556684172757,0.371427397743934,0.457458883088064,9.12505087613297,-0.0423811282467937,1724.79300922111,653.795892980286,1858.16890139924,0.730246858430623,4.88393678817484,-0.00542242733344137,0.152032062088461,-0.0472703644320225,0.795329695723143,-0.00376386423858471,0.448295644318693,"oto01","1",1
59.4524700641632,1064038.29954044,1.2011536652883,0.302851549042894,259.244381387019,-15853.5926374562,-4.21283060403854,-94.3619530206596,0.357204961022331,0.857386051340925,0.049475074733887,0.981184285922113,5.71098360049173,0.176034613830272,1889.07855841379,815.227267112868,2400.98394773585,-0.644943834654176,7.80193737717272,0.0315666375342443,1.22767021527127,0.177790113492124,0.550131481331749,-0.00445664592613173,0.634478968833198,"oto01","1",1
59.716719865799,1391540.17807739,1.26705241887437,3.33995934085076,208.028721203306,-6414.12238634476,-2.74124390043316,-208.907710332452,0.228360417050118,1.23160611927767,0.41055299094144,1.42123490215884,9.15276133124487,-0.0383388606082671,1334.76255650931,531.09595924235,1391.22503383699,-0.108295488586911,4.21518352937458,-0.00490524788058528,-0.0225461981317157,0.493023026073048,0.495092891235135,-0.00340487903706363,0.365927682237592,"oto01","1",1
59.9809000492096,1317451.62852391,0.969439989897482,3.52833613797653,220.746018648852,-20313.9820827739,3.47038835179031,-269.693529265915,0.335352952002593,0.691987121369665,0.51246578122439,0.79190335843201,8.4039681544048,-0.0861444986167031,1392.46548496985,599.692441110711,1895.33506265681,-0.114403252380828,4.19568090268211,-0.00518190980837235,-0.0238178405146862,-0.0451736887948909,0.83906621174609,-0.00359692049272486,0.428414874593168,"oto01","1",1
60.2450699806213,1209296.9618183,0.855326804964276,3.33366848585704,238.727760343113,-12910.0879220707,2.93523294460457,-78.2587799071137,0.109052183462435,-0.13087511464047,0.386797960950714,1.4428100154386,5.02277864216904,0.154822758744517,1510.08619568593,654.066656165904,1919.30921041456,-0.124667377536051,5.60004300766615,-0.0056468361608249,0.158324207778225,0.567559976331567,0.742144270268452,-0.00391964229326817,0.558030363563027,"oto01","1",1
60.5092499256134,1192821.0716007,0.66330245374666,0.270049905587805,231.925893823145,-4270.58741255024,-1.69911804923513,-314.408402682708,0.474484568779026,1.21313798870708,0.566182946046968,0.678950556366719,9.28483051882048,0.156968213161601,1501.37298146118,630.622176057266,1529.56080903368,-0.126394773772019,5.01443093019489,-0.00572509061475753,-0.0263145073334596,0.575425501647438,0.228673918909015,-0.00397396348665589,0.24218721910149,"oto01","1",1
60.7734699249268,1205780.36621006,1.26119596657166,-1.78363878592757,252.772625328337,-7839.18225469088,-0.0690085678903389,-47.9802997860602,0.469368955195144,0.312507019857372,0.646154072085677,0.86547868016501,11.2584767786579,0.255048290782908,1614.13173940657,613.177125077947,1780.39839922329,0.318825098449188,4.49179649881737,-0.00566336978496276,0.528429786138088,0.15682514254603,0.485260180613313,-0.00393112348861065,0.422481466455617,"oto01","1",1
61.0377299785614,1161464.37227136,0.0530789995700114,1.8743740900292,285.052775089745,-29531.4534039617,-0.335920347315906,-134.282493149715,0.220350134939944,0.0940927912004497,0.224044570146232,1.09988143388771,7.74206491697673,0.264812021469267,1685.73558488732,666.072428810938,1944.60845825747,-0.129818158934367,4.56645577096047,0.0289102019164805,0.164866765751817,0.376920417666319,0.234868672639666,-0.00408161925825293,0.248747279332549,"oto01","1",1
61.3019499778748,1178229.76527552,1.08437109738624,-0.776047794738684,271.05188042468,6404.7165425924,2.62192096733242,-95.5920896003488,0.427744406199859,1.68240983572946,0.661312886002487,0.687387017135467,4.80191044372779,0.0568072308705104,1649.8501208358,652.669261920063,1727.82250568316,0.32630387799392,4.6451356890415,-0.0057962408339955,0.540827962405759,0.371540180282888,0.673401982209732,-0.00402335828250092,0.572793091181452,"oto01","1",1
61.5662000179291,1251128.79853834,0.632298314408309,4.70415679625041,225.746575821952,-18328.9549767128,8.93506759192243,-66.4869213996103,0.105395043807592,2.43940636627404,0.456771072198815,0.647212729217611,11.5152189933813,0.101558731362014,1663.17062674002,716.327322955637,1934.57559743445,1.16267970156912,4.68973094745503,-0.00545748361728039,0.509219855299975,0.349825909086897,1.05012271161572,-0.00378821820364866,0.759649145506899,"oto01","1",1
61.8303298950195,1237794.17814833,0.442685017868498,0.759613506150012,213.63455568102,-10875.0144106967,-0.769636775222064,-96.2598065079895,0.206720170852152,0.736659773454996,0.210186060884614,0.276572814959016,7.93639359103363,0.151247735350444,1480.31724813655,586.164821713674,1768.84573736217,0.310552407064333,3.87326113270008,-0.00551646486215005,0.154669267625862,0.554457704886331,0.304451421506058,-0.00382916130650549,0.322441633706671,"oto01","1",1
62.0946300029755,1387211.73177567,1.62150558486113,3.79592479846334,170.605268658696,-6873.89794056412,3.55360848672758,-178.337055327918,0.407812015115743,1.4282574489943,0.337053532995105,0.751972559210073,5.87807014903475,0.134911746601051,1614.98432801868,544.488436724085,1449.64784803225,0.27700981926052,3.25138780099576,-0.00492064467761114,0.459129543902778,0.315414654247245,0.496648762360706,-0.0034155847884415,0.446535129516419,"oto01","1",1
62.3589298725128,1114133.38681508,-0.817933817530801,3.61941866702579,240.917144883724,-20668.7618027281,3.83016324519641,30.2541493942281,0.174071413293525,2.98061621413085,0.32677326041212,1.14677042553313,8.4461379821394,0.492122767778233,1744.3382385229,804.50581152842,2276.98897937446,-0.135351508873316,5.57275902776535,-0.00613087616731312,0.171896115539304,0.392990969602033,0.618799674189812,-0.00425564966996727,0.457359632440848,"oto01","1",1
62.6230900287628,1201276.10695151,0.861066111158489,2.84136672909329,210.665052282638,-2208.63048460675,-1.04855884596956,-64.4906846654528,0.161403687259884,0.75912630602701,0.302992928335228,-0.104137275951123,9.56602069005353,0.0557140460794409,1470.8173837928,587.83879987836,1889.8762811204,-0.125501379460046,3.52113309792147,-0.00568471670606533,0.530423071761073,0.364392155302819,0.487090683716449,-0.00394595757146673,0.469973136529296,"oto01","1",1
62.8872399330139,1143954.89017447,1.11697848933084,9.47089254368951,239.940354930438,-5571.43677953721,0.0166950797216359,-43.4339339381012,0.386386477526489,0.797292541675021,0.318226356100184,0.503694255008655,8.95387597112415,0.163696632674314,1696.86946514244,685.534106793356,1810.31369189323,0.33611143306406,3.94511374954468,-0.00597052858087225,0.362245201413723,0.382712933358044,0.147445556152442,-0.00414435191004511,0.252569675678448,"oto01","1",1
63.1515300273895,1232109.07263077,0.247380991353183,10.2965432983535,225.559953350791,-14014.5015786807,6.66197875059443,-160.387822135109,0.358655584331051,0.957204323958773,0.211159338778751,0.46754419415553,6.95845686071403,0.347218089706415,1545.30394649522,618.456907265235,2048.62445643637,0.311988341150101,4.12045264339532,-0.00554202838962487,0.517109684233011,0.557028145278179,0.643869680331612,-0.00384691729792417,0.592419336161376,"oto01","1",1
63.4157099723816,1243523.09849929,1.41836150717254,2.7445441237768,230.36444484734,-3745.48465754465,1.24944658517273,-116.845440789069,0.405217073440453,0.733257371718554,0.125763432685496,0.0873526737410116,12.9261522526514,0.295652765945616,1419.34310064379,578.301092507849,1604.90774956304,-0.551560387073928,4.21880350812591,0.0269968298144245,0.870748578431789,0.551900345871812,1.14030540694529,-0.00381150479755595,0.941660484588985,"oto01","1",1
63.6799299716949,1337080.92436833,1.13700814855817,3.47642949692455,215.265963997653,6271.65727535812,1.88866057627758,-47.5314231884203,0.144963430279453,2.48220140997607,0.194534180825637,0.0812229535540996,4.22969850841979,0.0500391343911517,1631.63077131755,566.677682486242,1678.67967692133,-0.512855540392303,3.58484890055902,-0.00510569627652106,0.143152638956092,-0.0445095288063707,0.359629972887093,-0.00354404803144737,0.215987472672817,"oto01","1",1
63.9441800117493,1106061.61865936,1.8151878423018,6.44159260645858,255.692520385933,-19059.5605975705,-0.58409270936332,-238.604902972609,0.0631873250342805,2.27651793457835,0.798478602023174,0.943782978758918,9.63848728106109,0.223724111463316,1673.61758822552,634.065766281703,2103.03778393075,-0.620345159838008,4.59166685252745,-0.0061758140011642,0.576246964911132,0.171016086247121,0.717503421561331,-0.00428685792364912,0.560442291960146,"oto01","1",1
64.2084498405457,1153144.44486289,1.52990280087252,4.0328026158738,272.798607316499,7678.59843489639,0.637719896242529,-77.824169756732,0.168163470319497,2.18325933593776,0.405698328623368,0.296944130070977,7.79789708760879,0.371074652510127,1682.93884916254,655.778073909386,1792.05693747927,-0.130756448352841,3.81560025686013,-0.00592282297597163,0.552641339400281,0.379655710406122,0.417186279242922,-0.00411125007664934,0.441837163723199,"oto01","1",1
64.4725699424744,1324656.72647629,0.597108120532018,6.30874742033285,224.537078984024,-13558.858462492,1.5202420821467,-17.7506437722543,0.286725838575401,0.890137051892123,0.0397132578065063,0.258385504436858,3.95498485917379,0.0505098948017295,1417.30601965078,622.259638678088,1794.83686747368,-0.517678189239146,4.21551092300221,-0.00515373931041082,0.144499833756398,-0.0449284011127539,0.441595565553246,-0.00357740285032597,0.25963250872657,"oto01","1",1
64.736829996109,1255209.03347224,1.59884900546074,8.13641127591344,223.668424417151,-17204.5744519527,0.46345254703124,-44.1292647242622,0.154447955274981,1.15266457984109,0.207261942737541,1.20368778674211,3.51062833103279,0.244975892571999,1390.01548802866,569.801077724667,1746.77052392805,0.30622746273379,3.50440209395737,-0.00543976109280276,0.330043280592014,0.348691484241037,0.46610339164461,-0.00377594350454976,0.405802567889823,"oto01","1",1
65.0009899139404,1261055.90453581,1.59141547285255,3.68666541676255,250.826000003185,-4038.83515931333,-2.498822217303,-94.4746765496501,0.25206352942828,0.0866397783008836,0.617749222545751,0.827432593848184,7.45893512016527,0.434614417211999,1643.3370229847,600.764562488901,1789.63754476322,-0.543865507780449,3.75685412764306,-0.0054144689249446,0.505208908188719,0.347070375368323,0.629051720217847,-0.00375838950236048,0.535068813865526,"oto01","1",1
65.2651998996735,1116970.59855918,0.708516960506729,9.14686548724047,258.297065837068,-7345.80060966801,0.475196363389797,-29.8459344146673,0.451287274914664,2.25421251535902,0.511824878562893,1.3531716881617,11.7830421063236,0.113799558709094,1721.76458100442,672.57292945509,2144.2893034312,-0.135005134586984,4.34432624333131,-0.00611532386530263,0.570603943793723,0.837309734776678,0.617232768586443,-0.00424488219923141,0.653702697097273,"oto01","1",1
65.5293600559235,1034290.28441941,1.94162994848242,6.89028074626845,259.459408583065,-16508.1803840786,2.7901623102807,-319.264828361405,0.367520712289754,0.882146167157807,0.753692716212387,0.105089742170994,7.48790576922845,0.122930438307796,1735.21073221015,677.344671860046,1903.13952223575,-0.663548177437749,4.91150629684394,-0.00660600014955993,0.616387834911946,0.904493443070508,0.465308239987384,-0.00458548227697381,0.599477105118774,"oto01","1",1
65.7936499118805,1375425.69937079,3.22625218265201,2.48062818058497,209.342574346914,648.091833932136,-1.88171326425598,-45.6072474271502,0.231045713363409,1.24608803534007,0.264523751750559,0.758438733849153,5.32271020821899,0.136071970744071,1317.40364113721,525.186832734953,1586.17380410153,0.279386486605052,2.99199336959362,-0.00496300401007882,0.139152300404322,0.318131594412704,0.576601350198514,-0.00344501665478907,0.41031208205018,"oto01","1",1
66.0578198432922,1309032.20646487,1.34719060500491,1.19032076760998,205.239860398723,-21421.64637235,0.952288122090892,-39.8117051891525,0.290158985247003,-0.120875632300169,0.753578738255738,0.261479287876147,8.13947316098357,0.28081515623539,1340.4029551332,585.690036109427,1681.71647010284,1.51982828227139,3.87765770177101,0.0256421252278053,0.656848883940399,0.144423356354206,0.526409123971988,-0.0036202646098077,0.473293126350495,"oto01","1",1
66.3220398426056,1466566.5806405,1.36783526978575,3.16871314661673,171.135285286551,-4204.05388332215,2.27949480792411,-81.1998008014001,0.216649840586689,0.0744673071971123,0.530958394076778,0.392605208745173,4.42310811454202,0.209578915481086,1359.16360986965,526.677707316589,1442.70636057636,0.991419322353017,2.49761759994153,-0.004653777940118,0.130482348951629,-0.0405700301389373,0.327799555975102,-0.00323037451614652,0.196870649899907,"oto01","1",1
66.5863099098206,1404954.83696525,1.7740309004224,4.18776669546149,203.269810311057,-5794.63264382997,7.95419561795155,-122.568537477685,0.182059029709967,0.268085760752515,0.406626610588207,0.409869385869218,6.98926197543107,0.00482137745030359,1354.97859939122,533.193715921431,1496.82721409253,-0.10725604378384,3.21027352097591,-0.0048584235590203,0.29477296656053,0.134536393945227,0.416292964257558,-0.00337242929069281,0.323209358969868,"oto01","1",1
66.8504998683929,1141986.54001397,0.0539889095981179,4.61385419258721,237.859172282095,-9576.52312482046,3.82612978125537,-220.326354882337,0.224123275320678,1.03300441084908,0.773278890705001,0.709282323809642,5.68446192993122,0.111298656639332,1718.29431184075,780.183041011116,2103.07724004098,-0.132037080105096,3.70462210641155,-0.0059809530999731,1.14363987952797,0.165620835430977,0.238896060109634,-0.00415162515824201,0.446176942278783,"oto01","1",1
67.1146800518036,1215453.27567332,2.05149913704311,4.33409784075057,217.361557190525,-7322.47521857921,8.18654468066896,-301.110585176901,0.159516320138741,1.63073822838123,0.299449712444551,1.24318781999222,2.25457033348592,0.00557545851265726,1404.16995621572,652.452247715935,1729.63037265297,-0.564331032098357,3.15468140299796,-0.00561830562511333,1.44101592815347,0.360137514466495,0.395738774683162,-0.00389989898461565,0.64594023041849,"oto01","1",1
67.3788499832153,1306928.19260881,2.09353262549981,6.39463559509827,229.975437827184,-11476.1999417023,2.48045187791788,-56.7570864240428,0.38550298377157,1.10692088240205,0.199036684986766,0.619504634463909,8.15252266169109,0.00518407611983765,1375.06631865887,572.25218687933,1685.04403447468,0.703468948227601,4.35935602742208,0.025683669210643,0.657914383423419,0.334857148378746,0.0493595133862831,-0.00362614080442929,0.263166424303965,"oto01","1",1
67.6431698799133,1473059.25009308,1.69180679770682,1.05743714463158,192.000005446151,-19759.5752656057,0.360027873992732,-175.667773387561,0.341913041372992,0.437181916658451,0.528613124783996,0.232288009276299,4.96892619319346,0.00459789779401158,1149.42407644723,509.568128643759,1506.09281112506,0.623924809818514,3.63643261009752,-0.00463323805848092,0.129906711356702,0.634384818773805,0.185064767411067,-0.00321612657108442,0.270818720635948,"oto01","1",1
67.907399892807,1119590.11049631,1.5759402335688,5.2588400850909,278.798085725191,1964.86835474757,7.01356881809277,-186.043575234076,0.394827280344199,0.814709479956021,0.325177947794454,0.723520792552691,0.959336135829535,0.382236606567878,1531.9443116487,676.733447326643,1835.67928662536,-0.13468692123421,4.88939675876595,-0.00610103407296063,0.370166056517802,0.613217894716033,0.336716765770537,-0.00423498841973337,0.405873166879288,"oto01","1",1
68.1717000007629,1075347.32362635,1.64101245677201,4.32565562451396,240.843461729126,-28310.0796764404,3.30221820018284,-215.775464347909,0.814969978101765,2.09287684821071,0.435156467187847,0.535949468832879,8.36377323554102,0.0622623925281939,1779.62910437778,739.900862004305,2139.70435799462,-0.140247971648312,4.61824986580011,-0.00635295090131224,0.800108698342562,0.638538420524784,0.641219899733093,-0.0044098572906108,0.679107018590513,"oto01","1",1
68.4360399246216,1162230.94761693,2.14576819148221,10.3857672190509,213.646509145924,-18910.6415756063,3.40689897975671,-182.710740327827,0.433657225345241,2.16614862483859,0.134590045660215,0.0934834889969649,9.8879581759385,0.0575925668611729,1566.02395253703,581.474857743456,1707.98766510612,0.330802143366046,3.88296086945596,-0.00587646825149967,0.356541331219691,0.37668664548306,0.503525363317747,-0.00407911256727091,0.438383079868565,"oto01","1",1
68.7001600265503,1073280.51929631,0.737474254850202,8.36802788091141,279.856341845527,-16745.9943755561,5.59894376023182,-188.002821600545,0.46972628388982,0.600608329620741,0.339259241116382,0.754851705931874,9.93352136755481,0.0063166758834546,1632.75351482571,625.576176235796,1898.52054966898,-0.1405187493128,3.20554187119473,-0.00636524252435588,0.593926233584595,0.87153289430036,0.642461058008791,-0.00441839471934489,0.680421490505379,"oto01","1",1
68.9644198417664,1125376.72793242,2.21628402145451,3.58320916038002,231.481215590339,-17930.8834224059,2.10874273279161,-119.700523258865,0.447907623950155,1.99952171384085,0.876982239885912,0.304298312231925,12.0647434267203,0.273336806161075,1538.60688119816,577.221446842907,1807.86521400431,0.341671681745029,3.75951915934982,-0.00606958271454206,1.16059076541887,0.8310512889893,0.520072813203881,-0.00421316676409243,0.746830109278418,"oto01","1",1
69.2285499572754,1065668.80335642,0.514463282957158,7.26716706038673,250.819986569981,-13592.7307092025,1.69891153436538,-299.072422637963,0.298447246373385,1.60960115084696,0.34169146729806,0.101984845965455,11.1782805762726,0.175767513447798,1693.02732431724,642.512678634345,1971.38667696835,0.360883704736333,5.19075335618937,-0.00641088528779331,0.598185531404409,1.34462976063897,-0.0371711200523799,-0.0044500826885129,0.426490277485502,"oto01","1",1
69.4927299022675,1753686.8519878,1.55904704738006,2.29661551708889,163.499138737785,-8910.38507874928,6.19388750500391,-63.2173981667814,0.145776966405337,1.2815687429434,0.443839981838066,0.594493314442157,2.98517448867355,-0.0646700745552069,1094.79717899078,407.356863962216,1266.37290923319,0.218989648856822,2.18436543538563,-0.00389022934454714,-0.0178810887064179,-0.0339138319069561,0.33333497400126,-0.00270038408598884,0.164571988962377,"oto01","1",1
69.7570400238037,1256863.54413044,2.56416357008303,6.65018065261869,220.589500835014,-17528.7301234226,0.6256388642252,-163.056989292406,0.15424532607342,0.725458156005573,0.124425716591083,0.830207376295534,3.17438012564887,0.0532431605555344,1396.21576909609,599.131741720259,1607.42325667137,-0.54567597674326,4.30883691636287,-0.00543269234866867,0.506912914429447,0.348240893058797,0.465501376250312,-0.00377107965528163,0.449142338619857,"oto01","1",1
70.0212700366974,1148111.26962677,1.32481743046054,10.5139727641003,217.072078516619,-15726.857730374,3.13683224693187,-172.145135674482,0.330966275663407,2.42596904817361,0.136251127016148,0.0946372525772815,1.29834992260459,0.163104210980033,1617.63355429474,614.361801326337,1733.91054964669,0.334882133327864,4.22618228990393,-0.00594901913731691,0.943388008480185,0.814544884458198,0.509743156090954,-0.00412948810827217,0.683962503247292,"oto01","1",1
70.2855498790741,1097885.86246205,2.27198823494521,4.23657173139029,261.503905794112,-9671.38145978205,4.63337595088275,-26.6410302415408,0.741679238432069,0.830875078241043,-0.0466148781511578,0.0989818417940675,7.43201136803411,0.00617463249010149,1691.51161111475,646.737439431401,1903.93507970984,0.350255362346129,3.54519552993285,-0.00622212979643242,1.1897623092489,0.625391427614923,0.0587916312064384,-0.00431906937487322,0.464171043461619,"oto01","1",1
70.5497000217438,1148111.26962677,3.65536596491951,0.280610231485331,260.311648378209,-16030.6205235301,-2.2555417672426,-181.399910382003,0.439009813715671,0.794406330125098,0.407486808747398,0.909111015413638,7.83176914089178,0.0583034488100907,1471.0815062171,613.564823474773,1931.37653504366,1.26731299497131,4.37383849355704,-0.00594903226806802,0.749240719758407,0.381339222447018,0.419036554115188,-0.00412950216024766,0.491830038502054,"oto01","1",1
70.8138198852539,1225023.28782068,1.43990062736769,6.8235933928664,232.056014554172,-837.488270039152,3.4406472041781,-251.367681724009,0.31012215974161,2.49159055877579,0.297104753097372,0.279469189905297,4.27742560678523,-0.0435674751527361,1399.68787130916,521.360699528186,1564.11451777085,0.313790100553684,3.63722719019441,-0.00557436344500447,0.338213020709241,0.357322692995348,0.73263157890027,-0.00386942927978621,0.550876908818821,"oto01","1",1
71.0780398845673,1174502.26566492,2.1233033606352,6.06513728693337,249.912788259767,-13046.6148546237,3.76347887700889,-248.991647103744,0.323505754192255,0.776498389422339,0.398301006508066,0.0925039677128908,8.00999072763294,0.313088365591632,1503.39809341162,654.369304276774,1529.19367999744,-0.584063512254665,2.73602429760564,-0.00581493383067579,0.92212639553935,0.79618701977976,0.498254850058839,-0.00403642297417475,0.66854769692716,"oto01","1",1
71.3422498703003,1194028.59968819,3.71806235740341,1.30535750124288,238.207822874819,-12418.8681019285,-1.65460408918842,-53.923247097416,0.318198495847559,1.43601536097948,0.304842062558667,0.0909863966929964,7.18058635988251,-0.0950796285741261,1403.78053980963,551.966880580094,1649.73314515634,-0.126261704355495,3.63732723268548,-0.00571954097630432,0.720338690082606,0.574876683672481,0.228456135999187,-0.00397020861662978,0.426676368374038,"oto01","1",1
71.6065299510956,1252562.25007561,1.60229211207507,2.23121805967617,250.873943704819,-7244.09458371029,4.87687666139189,-95.7611206328845,0.204278775304297,1.58228864686469,0.042006525228447,0.0867215093765513,5.18089034779365,0.245498284716718,1358.76176233758,543.796725730903,1740.67557947188,0.306869081728172,3.24136126998783,-0.005451447465957,-0.0250571668936692,0.150959129060378,0.0515097183362693,-0.00378411427317539,0.0545536149376445,"oto01","1",1
71.8706998825073,1703188.31180109,3.46012256603624,3.09021201561086,158.092552804585,-9243.38079126301,4.69512565462451,38.4620986194881,0.441121151214884,1.31965710351162,0.27438652138033,0.0637252803963393,3.07381956117345,0.0745438022818341,1033.21263132982,496.743602424705,1256.74019147372,-0.402355271448113,2.3487045003497,-0.00400587184840762,-0.0184126949787133,0.110928915544923,0.343245102655314,-0.00278067173780099,0.20180806772834,"oto01","1",1
72.1349899768829,1166721.79122724,2.34599772131634,3.45584788156689,248.137529511342,-15126.520499929,-1.82496280512511,-248.552154301055,0.431985228722087,1.01104059302054,0.312000665370413,1.29529449219632,5.920462678846,0.108932365250217,1485.35109927601,634.768584881131,1738.49703079422,-0.587969052792835,2.75434195503139,-0.0058538650884093,0.35517191373236,-0.0510324032013251,0.323077624425796,-0.00406345673504491,0.24763946024698,"oto01","1",1
72.3992600440979,1173515.75226872,3.99056539192456,7.12410731248014,285.444070596523,-4068.765232107,-1.24780446362071,-159.346083733269,0.218084027159534,1.23318398352429,-0.132046618166404,1.28777152689733,5.88606121248796,-0.0454861126979174,1544.10775124036,588.929539626768,1808.91845399227,-0.128475475591164,3.26785912012969,-0.00581987024889306,0.732975670715992,0.796864436537817,0.587418576004911,-0.00403986165439975,0.669117327287362,"oto01","1",1
72.6635799407959,1142751.97430063,1.96964907526844,7.31654420903363,220.359252696578,-18216.9350576662,3.68919974553996,-154.350319502152,0.495353843600138,2.43739497033149,0.227729693275216,0.708812310391051,10.7861376925732,-0.046714771014696,1541.63172621091,664.783733524888,1847.7045655905,-0.131945631278309,3.94943973207123,-0.00597707862646302,0.752775366338232,0.818389930043437,0.512149563632978,-0.00414899029649824,0.638930832631381,"oto01","1",1
72.9279499053955,1137613.48951777,2.62006904255489,0.826761314700263,255.078531265793,-9204.80409997564,2.40094854139991,-137.803604489618,0.38855414953632,1.74271228149131,0.228761890010792,0.506519708174465,4.60711163774142,0.217501800956832,1501.69216834394,583.653314136258,1853.98555032485,-0.132543503608242,3.17269258225415,-0.00600417421872923,0.364292063693202,0.822100209443664,0.789123686213022,-0.00416780120024571,0.690311400811381,"oto01","1",1
73.1922299861908,1649082.73302961,1.80555736309805,0.569742343799423,171.301888632666,-11255.0643269164,4.94263994822639,-54.8537321869001,0.230190129738225,0.876729142168921,0.283410520786113,0.490674455974637,5.95183710443019,0.259224042445488,1150.35663280526,427.156057487682,1330.78386247834,0.232909791167547,1.94682483585852,-0.0041376309722673,0.251043136082299,-0.036070796056834,0.291446698514854,-0.00287214078341743,0.208445184022163,"oto01","1",1
73.4565699100494,1158508.00241077,2.99259558506953,5.61543697802649,237.589661539619,-21530.4021374304,2.84350278901372,37.5538141023992,0.435059108107299,0.55628147503504,0.493419252105184,1.70809944610669,9.19994827064726,0.421288584803707,1532.94111781033,619.507669071779,1849.56925492057,0.793874183860582,3.01776091149228,-0.00589553888952923,0.165300544132861,0.163257152190588,0.505163410982871,-0.00409239681500647,0.344607135739365,"oto01","1",1
73.720860004425,1130947.40362907,0.699760190456091,0.831653069315083,261.636382258512,814.374365994505,0.605046413806193,-257.881165991557,0.171477955398976,0.0966423375444874,0.59727595247586,0.302796682784176,1.68653956292091,0.112390168072656,1753.43585276372,625.948879615532,1706.96326909981,-0.133327026287596,3.39129586071736,0.0296945226684269,0.760663904967134,-0.0526526205235969,0.425425417152669,-0.0041924720544608,0.401799061506701,"oto01","1",1
73.9852900505066,1389346.30422483,1.96906227845098,6.01437376753261,186.821203414702,-8765.82893867468,0.602628494056702,-111.588661678236,0.541043910732657,0.271109097539765,0.411212162562103,0.414491721318658,8.56652276422381,-0.0384005904572448,1198.94691983684,496.860907032288,1467.73074549189,0.661607428343733,2.55562341089684,-0.00491330780889086,0.137760621387742,0.67273822937835,0.346084300710415,-0.00341058377523954,0.366534301608979,"oto01","1",1
74.2494099140167,1189089.41583665,4.75641602567986,1.31080913171837,226.664430299835,-23027.6622274963,-0.844298211964863,-85.0765790216773,0.423834555747968,0.991964177160426,0.567977593451225,0.87768555313199,5.10779655658203,0.208056223146005,1471.46450937738,629.153957099053,1869.62617718927,0.32329941251848,3.46248793925791,-0.00574344496810634,0.348473496404987,0.577281715617507,0.57970640490881,-0.00398682775242457,0.521211581751065,"oto01","1",1
74.513659954071,1064255.68826316,3.02996845747856,8.43939876495904,281.751354112174,-3805.14450535559,0.114122816082157,-377.043857304391,0.123970876810685,2.61782626665712,0.439712335467663,0.321840347469217,7.27575173913236,0.232548704532489,1873.24161589462,693.737800102818,1957.99028800907,1.36750911973601,3.65769064996558,-0.00641957006604768,0.808506625275033,-0.0559642571054209,0.256418736455927,-0.0044561644697497,0.323404312852248,"oto01","1",1
74.778039932251,1250246.75231947,3.74494580523257,7.67456751227051,240.64277935889,-12370.0429282655,-2.43876369713384,32.1746788612351,0.303848333697283,1.37125337402887,0.623115876757713,0.0868830596126702,3.19109391571485,0.29406414394025,1409.68994126691,647.658376852776,1813.45098574661,-0.120565373932898,2.93118835363905,-0.0054616470670954,0.153135285044674,0.350099451748838,0.634542599928391,-0.00379122151726249,0.45154309084956,"oto01","1",1
75.042249917984,1273972.37239257,1.95705744250609,11.8986822197452,238.796930410361,-24635.7689034184,1.74158031119751,-177.525615475946,0.346841445722196,1.13565557070133,0.285656758878849,0.452142909979235,8.6905240970614,0.09973470763793,1282.49938989647,509.697859409426,1691.71888915265,-0.118313170133039,2.21150393151499,-0.00535963248946411,0.150275029753018,0.34356030103424,0.132361658463064,-0.00372040996363175,0.18345713047363,"oto01","1",1
75.3064198493958,1055237.10265763,2.8253803863201,5.58084431696218,321.74993194882,1782.12135602507,6.86028565040837,-301.239763803212,0.125034416467518,1.11825035767679,1.03389933773599,0.102997714357819,11.2885969955727,0.23454376174696,1656.80217981394,674.063249746543,1831.01423869748,-0.650306115058787,1.97549961150227,-0.00647465601825989,1.44936743099299,0.886522295568934,0.258619372223194,-0.00449441061627542,0.69212430055181,"oto01","1",1
75.5706000328064,1392912.3417481,2.66216801456823,5.55526531644917,218.256958437013,-10474.0438675573,9.16343437570571,-10.4245453185479,0.228140928855871,0.65441202644021,-0.185667334887746,0.74890291333481,7.04930959760853,0.263862788282007,1452.16939227777,480.979978783405,1668.51159296532,0.659905264011131,2.26534090440176,-0.0049007269054279,0.297343640677111,0.135709588293713,0.419923636924455,-0.0034018629152513,0.326028034235183,"oto01","1",1
